time,signal
0.0,0.27425493140642415
0.004,0.2882815456277899
0.008,0.02409852640795379
0.012,0.09907035093463121
0.016,0.17826106554123666
0.02,0.19797127766232436
0.024,0.12661694968759973
0.028,0.11193660147428913
0.032,0.2263268289435656
0.036000000000000004,0.3574041159758736
0.04,0.29054786937448557
0.044,0.0013390791519991008
0.048,0.4981861909973778
0.052000000000000005,0.4363417873439185
0.056,-0.06820142312641275
0.06,0.4969465040280981
0.064,0.29876150009502395
0.068,0.3585409529713027
0.07200000000000001,0.10461954166480814
0.076,0.6728635231694288
0.08,0.3974114064012432
0.084,0.3802029530737141
0.088,0.3576756830888862
0.092,0.5496813179174375
0.096,0.42778709409597526
0.1,0.7359451154112662
0.10400000000000001,0.4890648182833322
0.108,0.9464591915400613
0.112,0.5985936408264892
0.116,0.5618679623589272
0.12,0.7516545693751384
0.124,0.589205804298151
0.128,0.8882710484967674
0.132,0.5442528620411298
0.136,0.6587047582368852
0.14,0.4686255907500675
0.14400000000000002,0.8939161866629264
0.148,0.756997846657785
0.152,1.1683823463810605
0.156,0.7692759054386464
0.16,0.8304940025445444
0.164,1.167404939460006
0.168,0.5935961343642091
0.17200000000000001,0.5951090530029332
0.176,0.866705271700638
0.18,0.5988609189050453
0.184,0.8671853931413601
0.188,0.6099515809034646
0.192,0.67848459623409
0.196,0.817915252991819
0.2,0.9905612841807742
0.20400000000000001,0.7357845476817998
0.20800000000000002,0.9035449588969386
0.212,1.0605786095460674
0.216,0.886927235173339
0.22,0.9203097662400174
0.224,0.9366820334287789
0.228,0.5993562623131728
0.232,0.37993527378263653
0.23600000000000002,0.7830715826189629
0.24,0.8267128590441541
0.244,0.6208149587604233
0.248,0.7566455661933041
0.252,0.5569126196653722
0.256,0.7577788303713148
0.26,0.6125105093987198
0.264,0.8038726715279936
0.268,0.7924312031243064
0.272,0.7885329494179283
0.276,0.7674172529101447
0.28,0.5424289890909066
0.28400000000000003,0.838857064953932
0.28800000000000003,0.6135651456711897
0.292,0.5813732041625473
0.296,0.7386472661714282
0.3,0.9683761061039476
0.304,0.5493062724939634
0.308,0.6857766406613527
0.312,0.6399375587983703
0.316,0.31416655728643317
0.32,0.603932008388089
0.324,0.5956905544875838
0.328,0.023653908557400016
0.332,0.5816692998001936
0.336,0.6874979346432886
0.34,0.4523264338116335
0.34400000000000003,0.5704333204979495
0.34800000000000003,0.5000766130126253
0.352,0.33320722804373876
0.356,0.6104908824330835
0.36,0.039851858095827586
0.364,0.2666082423171902
0.368,0.39432498629878004
0.372,0.373004016789081
0.376,0.4740463322099898
0.38,0.1942319171140188
0.384,0.49644262594508604
0.388,0.09508420039545343
0.392,0.3132917923828143
0.396,-0.1174128118694966
0.4,0.26495841732608816
0.404,0.12817511930475597
0.40800000000000003,0.1891631651925158
0.41200000000000003,-0.014929474261436766
0.41600000000000004,0.18328813077922157
0.42,-0.21747792125931642
0.424,0.09817195938413459
0.428,-0.5102994050023412
0.432,-0.36464185643414504
0.436,0.034319684450672266
0.44,-0.036086309000910435
0.444,-0.41459716826307164
0.448,-0.1716779240657281
0.452,-0.4953885058517014
0.456,-0.23372090442708487
0.46,-0.31456186425640886
0.464,0.1215024556741951
0.468,0.02460023963898772
0.47200000000000003,-0.3926096429027245
0.47600000000000003,-0.25655193441991697
0.48,-0.485105871914581
0.484,-0.4337393472287035
0.488,-0.17905351586061233
0.492,-0.24735101247818753
0.496,-0.819044876037822
0.5,-0.6324495137368467
0.504,-0.3819280124476309
0.508,-0.7699343443565622
0.512,-1.0532936241005153
0.516,-0.8929534893716075
0.52,-0.4175088394395926
0.524,-0.6092414011171784
0.528,-0.5828994703244474
0.532,-0.6951864849065474
0.536,-0.598030959959245
0.54,-0.6112476235440294
0.544,-0.4315540478113887
0.548,-0.9697449726675239
0.552,-0.5448075081153896
0.556,-0.4113134964523587
0.56,-0.30345681059738083
0.5640000000000001,-0.9261166935672926
0.5680000000000001,-0.34106349201685027
0.5720000000000001,-0.7903291342614167
0.5760000000000001,-0.36952712141065014
0.58,-0.7679521106728555
0.584,-0.5996127026783796
0.588,-0.8578214081591374
0.592,-0.3654133499313719
0.596,-0.6201357774886578
0.6,-0.6046757939467893
0.604,-0.9099487195533662
0.608,-0.6433897648502837
0.612,-0.700773201882028
0.616,-0.6944227232933194
0.62,-1.055077171898429
0.624,-0.6657643567279597
0.628,-1.1410181191221187
0.632,-0.6399325980417092
0.636,-1.172075993887454
0.64,-0.9195037647862515
0.644,-0.9204654251310898
0.648,-0.9680658507331085
0.652,-0.8808346042004833
0.656,-0.730562603714439
0.66,-0.7932462749907401
0.664,-0.5193967285605251
0.668,-0.5868347784946968
0.672,-0.5501303248400825
0.676,-0.7851642464914134
0.68,-0.6846999794177498
0.684,-0.6780717194895647
0.6880000000000001,-0.9719469071478235
0.6920000000000001,-1.0016816706539051
0.6960000000000001,-1.04894097252191
0.7000000000000001,-0.412881695707071
0.704,-0.5395656866529345
0.708,-0.27386845943966914
0.712,-0.59973224728012
0.716,-0.5481333275844555
0.72,-0.551104060844244
0.724,-0.7162537971624758
0.728,-0.39983294395556945
0.732,-0.21316301005620913
0.736,-0.4661471094795104
0.74,-0.3717912136930679
0.744,-0.5956805568692916
0.748,-0.36723053375949616
0.752,-0.6209157907669589
0.756,-0.10298458247353787
0.76,-0.30057841228652354
0.764,-0.2928788858939121
0.768,-0.5158561096536967
0.772,-0.14622100039566838
0.776,-0.29930517765445896
0.78,-0.4921675362123554
0.784,-0.5758523969090558
0.788,-0.2509835598790566
0.792,0.1214054169689231
0.796,-0.1441624821237133
0.8,-0.26425317093588857
0.804,-0.15759920988580434
0.808,0.1735964310650368
0.812,-0.42522495889524703
0.8160000000000001,0.11437422219370572
0.8200000000000001,0.006424642089745747
0.8240000000000001,0.15231366658269732
0.8280000000000001,0.07107842446566139
0.8320000000000001,0.01088260271019354
0.836,0.05514577263847671
0.84,-0.10917065209851058
0.844,0.12251636783809036
0.848,0.09003412184925207
0.852,0.020149829898191016
0.856,-0.2222669059356672
0.86,-0.13648797532028126
0.864,0.10603063345494564
0.868,0.10192500517057301
0.872,0.10733288986942566
0.876,0.4923140078338244
0.88,0.14551855458367302
0.884,0.3196583891897367
0.888,0.42225404838609143
0.892,0.1564906267307847
0.896,0.45996479910333793
0.9,0.15884760127699937
0.904,0.4686612285966472
0.908,0.2125486968983863
0.912,0.3682663288292154
0.916,0.6892158859315576
0.92,0.7033974618717892
0.924,0.7970494225629459
0.928,0.6235601247616903
0.932,0.7083525719772864
0.936,0.3800491548816415
0.9400000000000001,0.4721724807579708
0.9440000000000001,0.4418874171414514
0.9480000000000001,0.42786996177076686
0.9520000000000001,0.4844043938458784
0.9560000000000001,0.39589351020510377
0.96,0.8161252222440114
0.964,0.9919970291600959
0.968,0.604768898336176
0.972,0.7110587757400033
0.976,0.8571395123918171
0.98,0.7926322131975566
0.984,0.7118477995901873
0.988,0.6600329231379786
0.992,1.027407006198593
0.996,0.8311415228050301
1.0,0.9499982137682051
1.004,0.8065939129304119
1.008,1.0961085874666385
1.012,0.7437468626692469
1.016,0.686586390374017
1.02,0.8383548059883994
1.024,0.31289693400004026
1.028,0.7977894763131894
1.032,0.3693181665767117
1.036,1.0096312363748061
1.04,0.844867259580656
1.044,0.7576875495919947
1.048,0.8104789555342806
1.052,0.653108700790256
1.056,0.9131214214213722
1.06,1.0629136076505128
1.064,0.7720034398241482
1.068,1.0705821087296397
1.072,0.6697883560287685
1.076,0.6450539543982725
1.08,0.5100796801195835
1.084,0.8077187510671885
1.088,0.8447212068661399
1.092,0.8500362528930004
1.096,1.0670869149096283
1.1,0.7001864436160017
1.104,0.6063136365198415
1.108,0.9475183413894648
1.112,0.631644228932777
1.116,0.7279981750678008
1.12,1.132416658492267
1.124,0.27345144774207575
1.1280000000000001,0.46424104005871314
1.1320000000000001,0.45090780688022625
1.1360000000000001,0.5060587906474908
1.1400000000000001,0.6639421823510174
1.1440000000000001,0.6279298230572375
1.1480000000000001,0.9569634125649775
1.1520000000000001,0.46624315405776384
1.156,0.6012068391009061
1.16,0.5842022502174256
1.164,0.17502937189207685
1.168,0.7177645460707152
1.172,0.419347598635343
1.176,0.3116644855277415
1.18,0.4745214429683106
1.184,0.41032436375087505
1.188,0.35499153734456657
1.192,0.5645951938226934
1.196,0.3678842947811128
1.2,0.3583696295295543
1.204,0.22642357439105834
1.208,0.08194424755879257
1.212,0.10522545682442624
1.216,0.480915643315888
1.22,0.1368013966333994
1.224,0.1564718030674406
1.228,-0.10162603070599466
1.232,0.2687893298395193
1.236,-0.15662135566790614
1.24,0.33686496131221105
1.244,0.5286421514113169
1.248,0.23239187397856617
1.252,-0.08505312202542503
1.256,-0.145027453606404
1.26,-0.1471749189842042
1.264,-0.17184549009232641
1.268,-0.15395451265756682
1.272,-0.21663857259687527
1.276,-0.18089967083809588
1.28,-0.011847201700016158
1.284,-0.1695535536549313
1.288,-0.11355843259808174
1.292,-0.15539091517635004
1.296,-0.09703102664377267
1.3,-0.19951422444978306
1.304,-0.29164475669802115
1.308,-0.493969922780259
1.312,-0.3124352486555161
1.316,-0.36560457010295294
1.32,-0.18729656410137388
1.324,-0.6835394358914922
1.328,-0.20747779819897796
1.332,-0.27695959392083636
1.336,-0.42395714759467323
1.34,-0.33704377496735605
1.344,-0.28137803076965573
1.348,-0.6477100658830315
1.352,-0.13964246951778897
1.356,-0.6033094504353356
1.36,-0.5668656626117897
1.364,-0.7561159541488249
1.368,-0.5691030623872605
1.372,-0.7586604243010163
1.3760000000000001,-0.38477990759569236
1.3800000000000001,-0.6921003439977068
1.3840000000000001,-0.39628374630838076
1.3880000000000001,-0.48352536123080025
1.3920000000000001,-0.38012615351962953
1.3960000000000001,-0.5632358654296437
1.4000000000000001,-0.8256612672920867
1.4040000000000001,-0.67744431774267
1.408,-0.6879060957282774
1.412,-0.6274697647935892
1.416,-0.6546142059182511
1.42,-0.5758924150366501
1.424,-0.8313684125656494
1.428,-0.5862724018216882
1.432,-0.8947983640610059
1.436,-0.8984792151434414
1.44,-0.8222984761403437
1.444,-0.5128242814233672
1.448,-0.5684147964434481
1.452,-0.9090002134431123
1.456,-0.6865396093195241
1.46,-0.5285412540920713
1.464,-0.6529788256824571
1.468,-0.6990585890132154
1.472,-1.0060530869405206
1.476,-0.9041001324801985
1.48,-0.48279923522728
1.484,-0.8733288499064035
1.488,-1.0949008311811554
1.492,-0.9268215995174873
1.496,-0.7424511306668022
1.5,-0.7087785882182851
1.504,-0.5731726056183911
1.508,-0.9188269149229602
1.512,-0.4420133858935847
1.516,-0.66103005946767
1.52,-0.8923959636370365
1.524,-0.7679864465530389
1.528,-0.7090559751282316
1.532,-0.2575035527750889
1.536,-0.5987590882271284
1.54,-0.9810896684625434
1.544,-0.24469707967582444
1.548,-0.533019641972976
1.552,-0.6604953586394376
1.556,-0.5530553720525411
1.56,-0.9795798230764816
1.564,-0.36522545638662895
1.568,-0.5817486416034696
1.572,-0.4253699554892022
1.576,-0.4745431440864986
1.58,-0.6249932808727312
1.584,-0.5752677479233497
1.588,-0.7155933977143469
1.592,-0.5354757646446746
1.596,-0.617076269151069
1.6,-0.3923288170206964
1.604,0.00676913452696104
1.608,-0.23793792938515673
1.612,-0.1316127473154948
1.616,-0.3118695652387347
1.62,-0.32808492658466304
1.624,-0.27618182159923743
1.6280000000000001,-0.25321005848268885
1.6320000000000001,-0.09746927803101532
1.6360000000000001,-0.4210685728594586
1.6400000000000001,0.01321734187810683
1.6440000000000001,-0.2101301479755578
1.6480000000000001,0.20719277773185557
1.6520000000000001,-0.15396303730437771
1.6560000000000001,-0.11642825849075429
1.6600000000000001,-0.27250031775663397
1.6640000000000001,0.3534548082700063
1.668,0.1862020134572114
1.672,0.11188557763033526
1.676,-0.11229296878920461
1.68,0.46419249615659625
1.684,0.0868514538316172
1.688,0.0027260576012008986
1.692,0.3161158799774505
1.696,0.2950282551007524
1.7,0.4885238840895836
1.704,0.06266072806293041
1.708,0.4839973987798756
1.712,0.44640636808469836
1.716,0.244598190699827
1.72,0.2633451104835855
1.724,0.22455787067574834
1.728,0.2016444862683421
1.732,0.36274093038860156
1.736,0.36912591500959846
1.74,0.15201991455073888
1.744,0.4385743925637465
1.748,0.495715782462681
1.752,0.45578449016524003
1.756,0.39658298137059755
1.76,1.0029621162846607
1.764,0.512047669378272
1.768,0.5575895443899666
1.772,0.4560521924468356
1.776,0.4194961516636151
1.78,0.50736905904492
1.784,0.6589392203872022
1.788,0.5491112780809972
1.792,0.7511090404475098
1.796,0.24028932719775148
1.8,0.7945730893223512
1.804,0.582755634308414
1.808,0.6974184574872195
1.812,0.832607858776155
1.816,0.7880254398892091
1.82,1.1908234757945146
1.824,0.6665232438800602
1.828,0.814648158002989
1.832,0.6561367179699948
1.836,0.9431328980121194
1.84,0.6286752820555037
1.844,0.7430725854583881
1.848,0.7896329124766573
1.852,1.1313697577961646
1.856,0.8728031123971046
1.86,0.6401286720722933
1.864,0.9338204393029336
1.868,0.8851577276326033
1.872,0.8274981922729502
1.8760000000000001,1.1550520926368928
1.8800000000000001,0.9160331636572298
1.8840000000000001,0.7197407893475236
1.8880000000000001,0.7401168385430862
1.8920000000000001,0.8942815634547874
1.8960000000000001,1.4037086744909988
1.9000000000000001,1.0273112181173008
1.9040000000000001,1.03069732317491
1.9080000000000001,0.8189696543677895
1.9120000000000001,0.6522943716779646
1.9160000000000001,0.8678283968681914
1.92,0.6840793656876267
1.924,0.8249034653440133
1.928,0.7496865024201556
1.932,0.9117446709454242
1.936,0.8593977935536674
1.94,0.47517357551720873
1.944,0.7741181717044
1.948,0.48336614149691326
1.952,1.078216506391617
1.956,0.40667822512999424
1.96,0.5471346592072093
1.964,0.7524278044529032
1.968,0.4452167278021425
1.972,0.685399986032316
1.976,0.875658884398963
1.98,0.43293957364557245
1.984,0.58514094485258
1.988,0.5764891013435337
1.992,0.44795690050569253
1.996,0.30816597295973513
2.0,0.7510954181223618
2.004,0.4229309664569934
2.008,0.6578264649121042
2.012,0.5773144939229142
2.016,0.046346911742747354
2.02,0.2530522837136191
2.024,0.35351837003716846
2.028,0.5157624177115144
2.032,0.38270098047731343
2.036,0.3602122529397338
2.04,0.3544303983477494
2.044,-0.06518912652573994
2.048,0.10253619551455731
2.052,0.2586164406703283
2.056,0.14936935401387508
2.06,0.24309205265494532
2.064,0.34482246878270145
2.068,-0.1913950116402822
2.072,-0.08445363910087415
2.076,-0.16256723776335327
2.08,-0.14156385122357412
2.084,-0.1877009034033752
2.088,-0.04072051426039722
2.092,-0.06805229552535327
2.096,-0.032135420123596804
2.1,-0.6471251623832587
2.104,-0.1484425067044826
2.108,-0.01961940521641778
2.112,-0.15289252112081506
2.116,-0.4097813195570176
2.12,-0.22747494657534062
2.124,-0.6862781109628502
2.128,0.0018155932824863719
2.132,-0.5295169101768651
2.136,-0.5625536009658108
2.14,-0.4803653423922154
2.144,-0.14104353591563068
2.148,-0.48018140032799816
2.152,-0.4324757755827539
2.156,-0.3688593927589274
2.16,-0.4399042915697668
2.164,-0.5963687560695718
2.168,-0.5639276917601819
2.172,-0.6014014422758219
2.176,-0.16716596894276314
2.18,-0.6807857816785725
2.184,-0.5580926197498319
2.188,-0.6437985265604689
2.192,-0.4473231594630424
2.196,-0.3911945692974994
2.2,-0.30783325578436194
2.204,-1.067155778984226
2.208,-0.7383458942345706
2.212,-0.8126604852520912
2.216,-0.638630148738371
2.22,-0.6750111219081811
2.224,-0.5228828387760392
2.228,-1.1279279005109437
2.232,-0.789852105468369
2.236,-0.37294703223684544
2.24,-1.0694669379762531
2.244,-0.7598293864951622
2.248,-0.6160752178675803
2.2520000000000002,-1.1180127177233645
2.2560000000000002,-0.8153696898153708
2.2600000000000002,-0.4334083461518844
2.2640000000000002,-0.775041840934914
2.2680000000000002,-0.49388393957327237
2.2720000000000002,-0.9186388020120255
2.2760000000000002,-0.7926453464433216
2.2800000000000002,-0.6596504764451128
2.2840000000000003,-0.7831943502445939
2.2880000000000003,-0.7194305281468015
2.2920000000000003,-0.6036573726842183
2.2960000000000003,-0.8592488434791529
2.3000000000000003,-0.6399829830666436
2.3040000000000003,-0.625494421283005
2.308,-0.9182759292190157
2.312,-0.8407258640974248
2.316,-0.5663431767954604
2.32,-0.8227892259233666
2.324,-0.9307234581548076
2.328,-0.8375123990639004
2.332,-0.6109727733929432
2.336,-1.1237577204548979
2.34,-0.8264485490086715
2.344,-0.5238831141043011
2.348,-1.172062495494805
2.352,-0.5268233798826704
2.356,-0.5655186737163602
2.36,-0.3134569534689233
2.364,-0.882257665561354
2.368,-0.8699775713318929
2.372,-0.2652543086129814
2.376,-0.6112275811257679
2.38,-0.23748797727201137
2.384,-0.8133644671482406
2.388,-0.8782706823889229
2.392,-0.6053166256372393
2.396,-0.7329852292748487
2.4,-0.5554124992465886
2.404,-0.37558410920153407
2.408,-0.40672093001995074
2.412,-0.8656835702550092
2.416,-0.1951187332963859
2.42,-0.47196872482404756
2.424,-0.4983959247246086
2.428,-0.533206078659716
2.432,-0.6057719453992645
2.436,-0.6133643720460785
2.44,-0.5911027377579481
2.444,-0.5047532522397495
2.448,-0.49585312368234546
2.452,-0.46601613316759743
2.456,-0.3172822587373554
2.46,-0.28043831126718605
2.464,-0.2131345648151845
2.468,-0.04361481521277502
2.472,-0.24874743043403008
2.476,-0.1925590761225934
2.48,-0.23527229579920345
2.484,0.057209596049258155
2.488,-0.3217062218996143
2.492,0.14199095594750216
2.496,0.036535494243708735
2.5,0.22170564124389833
2.504,-0.16005214501546505
2.508,-0.18850926175379099
2.512,0.3957976154899733
2.516,0.1390454838200093
2.52,0.059661454080081416
2.524,0.08762564047099546
2.528,0.2945589818990525
2.532,0.3458384212683412
2.536,0.18448364309820725
2.54,0.5301578348724931
2.544,0.427341861896817
2.548,0.5340871850920642
2.552,0.3332180374105741
2.556,0.07223386041324276
2.56,0.2712290331523058
2.564,0.521419445124606
2.568,0.43103821611781235
2.572,0.23499415926993927
2.576,0.8080255295771294
2.58,0.4477426354561231
2.584,0.28452075016054557
2.588,0.5232401193073002
2.592,0.6352517281638621
2.596,0.6122100870483682
2.6,0.4616735658350895
2.604,0.8882479766732839
2.608,0.3872526196526213
2.612,0.5169897720036586
2.616,0.7215383735778559
2.62,0.5822392519213934
2.624,0.6240941471538505
2.628,0.3674920496235296
2.632,0.750615112850315
2.636,0.5825320334642938
2.64,0.6075102160871669
2.644,0.5474073594327651
2.648,0.6084110783032187
2.652,0.7515083672490908
2.656,0.5916496383810255
2.66,0.9312159270232279
2.664,0.924775715367419
2.668,0.8495744195249881
2.672,0.6261506918629323
2.676,1.0453607337294035
2.68,0.7174093642094348
2.684,0.7305054665961846
2.688,0.6313107462113665
2.692,0.2397690052727961
2.696,0.6443279890345325
2.7,0.9567153561650021
2.704,0.6742550379464548
2.708,1.0247810798776222
2.712,1.03824555390694
2.716,0.7822465517295522
2.72,0.7409330892813757
2.724,0.7431334746062443
2.728,1.138811962554434
2.732,0.2810588028723837
2.736,0.90226739378082
2.74,1.003802705533545
2.744,1.072978306703495
2.748,0.4163461479728526
2.7520000000000002,0.6628598581962488
2.7560000000000002,0.790574281137883
2.7600000000000002,0.40441837912465795
2.7640000000000002,0.6750007007733573
2.7680000000000002,0.6415869175993505
2.7720000000000002,0.7524618125207359
2.7760000000000002,0.9066463349419577
2.7800000000000002,0.6083704759371533
2.7840000000000003,0.5976402291611035
2.7880000000000003,0.7638410124270963
2.7920000000000003,0.4783757396962323
2.7960000000000003,0.7213407540010607
2.8000000000000003,0.7538630420177643
2.8040000000000003,1.0274762119458039
2.8080000000000003,0.7046497310997855
2.8120000000000003,0.23704128732423446
2.816,0.6167735449567162
2.82,0.3201728591252003
2.824,0.5673990925127985
2.828,0.7777642648558422
2.832,0.6415552117512534
2.836,0.28587519877235845
2.84,0.6144631659167252
2.844,0.7955075634567497
2.848,0.43429052008574726
2.852,0.3434590956202829
2.856,0.6184014822273873
2.86,0.4565051787444442
2.864,0.49649635717984636
2.868,0.2755939937578429
2.872,0.28035084997618404
2.876,0.3839901779018281
2.88,0.1140783944171284
2.884,0.13065596853104328
2.888,0.2644805680926783
2.892,0.08758126125601504
2.896,0.42445654962708024
2.9,0.05106867179968159
2.904,-0.011985774421918435
2.908,-0.12297192006535493
2.912,0.06093874107509016
2.916,-0.28450709099643656
2.92,-0.10600680312934323
2.924,-0.2879128138814657
2.928,0.0914088511889792
2.932,-0.10990814202143301
2.936,-0.02999844223314048
2.94,-0.38601757449129404
2.944,-0.31409511606078167
2.948,-0.2987966022100559
2.952,-0.30716033130613996
2.956,-0.1627171138921395
2.96,-0.38439733824471145
2.964,-0.4081152873564401
2.968,-0.35463091447772727
2.972,-0.23135197424207393
2.976,-0.23974734815960777
2.98,-0.5018825054190938
2.984,-0.4827931869439673
2.988,-0.14047664113058894
2.992,-0.5121867372071922
2.996,-0.17213665366431574
3.0,-0.8660818242621695
3.004,-0.7463463972629485
3.008,-0.5465365795696496
3.012,-0.671920713849647
3.016,-1.157929698341829
3.02,-0.5044691145887829
3.024,-0.30476148436632
3.028,-0.5925542579861975
3.032,-0.8710397959363247
3.036,-0.6438433637334897
3.04,-0.35822291972521664
3.044,-0.9665985181474969
3.048,-0.5259064328656576
3.052,-0.7383629184138998
3.056,-0.8705430901336679
3.06,-0.7528398614171621
3.064,-0.3691293335410927
3.068,-0.8240751962666402
3.072,-0.7787039942139147
3.076,-0.9048365154955325
3.08,-0.5417840702008995
3.084,-0.6480870247682766
3.088,-0.3013172956031205
3.092,-0.8502478314092374
3.096,-0.8598971131476596
3.1,-0.3981521222740334
3.104,-0.9176850165374191
3.108,-0.9561710428632997
3.112,-0.8904361473162572
3.116,-0.8004286161475198
3.12,-1.1155776448798054
3.124,-0.7972100020059198
3.128,-1.2853613465553515
3.132,-0.8100950478454431
3.136,-0.5516851944377432
3.14,-0.8819496689821689
3.144,-0.6540244250265065
3.148,-0.9000908803519626
3.152,-0.8194994899708968
3.156,-0.7978308720691151
3.16,-0.7840636988324892
3.164,-0.6769062771487708
3.168,-0.6220306843376384
3.172,-0.7790836504060491
3.176,-0.7668464619460056
3.18,-0.7128496921736841
3.184,-0.5707302447693177
3.188,-0.8386834698694067
3.192,-0.6703010269306451
3.196,-0.9461525239577536
3.2,-0.7863977221094626
3.204,-0.5691579983008385
3.208,-0.9836601882312754
3.212,-0.9043250208020797
3.216,-0.9621938358094932
3.22,-0.6368031436236058
3.224,-0.6507981755296657
3.228,-0.5894276739809556
3.232,-0.7010083098816381
3.236,-0.3725769320353771
3.24,-0.6084453913669476
3.244,-0.3876458571870123
3.248,-0.45207141923717564
3.2520000000000002,-0.39843283720942646
3.2560000000000002,-0.5358904973378047
3.2600000000000002,-0.4582006884853218
3.2640000000000002,-0.5060683057029349
3.2680000000000002,-0.12476149007553022
3.2720000000000002,-0.5005230360992474
3.2760000000000002,-0.5200880919014884
3.2800000000000002,-0.29229474843463005
3.2840000000000003,-0.41102873839817494
3.2880000000000003,-0.4009069576522223
3.2920000000000003,-0.09098523825009142
3.2960000000000003,-0.306337138659927
3.3000000000000003,-0.04370772099921558
3.3040000000000003,-0.20776135428545553
3.3080000000000003,0.05964517782590001
3.3120000000000003,-0.10996670681465683
3.3160000000000003,-0.07021906256172786
3.3200000000000003,-0.2712155009675541
3.3240000000000003,-0.1333926093289639
3.3280000000000003,0.004619324958618103
3.332,0.12357854717373239
3.336,0.01773635096746043
3.34,0.06966735105273665
3.344,-0.09276591937402036
3.348,0.06286568078306848
3.352,0.07911359168029175
3.356,0.25916360102192426
3.36,0.13751208620260089
3.364,0.31976659068470903
3.368,0.10462980807176889
3.372,0.49178055241846974
3.376,0.3285761944014998
3.38,0.07590957426379544
3.384,0.1685716791440042
3.388,0.10857562142051078
3.392,-0.04092062820866316
3.396,0.20008474801080212
3.4,0.28347652549577634
3.404,0.21305710999139676
3.408,0.4905337328315156
3.412,0.557200474169016
3.416,0.49636683907057066
3.42,0.8174500039180363
3.424,0.47321228112708763
3.428,0.5726839565785004
3.432,0.6763194058115088
3.436,0.6591612993777326
3.44,0.17989303176916105
3.444,0.5814573464960957
3.448,0.7702661590080843
3.452,0.6226912160555369
3.456,0.7474122512926619
3.46,0.4798521372277562
3.464,0.6580929739126807
3.468,0.7104707608094412
3.472,0.9187720844701026
3.476,0.46342572537209803
3.48,0.20061031774274507
3.484,0.806245947439008
3.488,0.899854334514681
3.492,0.7970885928079643
3.496,0.7785162503971741
3.5,1.0111231985982216
3.504,0.732632216462412
3.508,0.6115285119659253
3.512,1.010600541764428
3.516,0.9166172841811342
3.52,0.8512159279118332
3.524,0.6214449599302234
3.528,0.7502667965732337
3.532,0.5943675584306392
3.536,0.5545569336989215
3.54,1.0703602396445582
3.544,1.1686544246536312
3.548,1.2558501278678997
3.552,1.147100996102785
3.556,0.46527083156450266
3.56,0.6518734247436606
3.564,0.8198818997744762
3.568,0.8505501190450103
3.572,0.6829160722370249
3.576,1.0097361920815813
3.58,1.1032339788104797
3.584,0.8005455741815067
3.588,0.7945333126663028
3.592,0.4927458404648199
3.596,0.427339235170087
3.6,0.4192752344076124
3.604,0.6594412204098175
3.608,0.9989428959011978
3.612,0.5715309413422859
3.616,0.4922237474586658
3.62,0.8622779695642984
3.624,0.5696529312709482
3.628,0.1741346484325884
3.632,0.5932721725848108
3.636,0.9216674843713597
3.64,0.44861711381484193
3.644,1.0741775331191814
3.648,0.4343319908801895
3.652,0.54484628514135
3.656,0.535638669683562
3.66,0.3229304687634992
3.664,0.4648528671014667
3.668,0.12559857486247966
3.672,0.7202379212997092
3.676,0.4318356204640478
3.68,0.7526131675900545
3.684,0.4782447953785609
3.688,0.7958189374184201
3.692,0.49823389509113636
3.696,0.3189452055910099
3.7,0.585395186071985
3.704,-0.021932453869737634
3.708,0.07984706539144548
3.712,0.04764127572409721
3.716,0.2751057654972765
3.72,0.4330511168106867
3.724,0.27311625853646015
3.728,0.29293476199239155
3.732,0.0826666026344968
3.736,-0.004286475912971821
3.74,-0.12497941804982082
3.744,-0.018982949836650054
3.748,-0.04134439552608171
3.7520000000000002,0.2952172503989649
3.7560000000000002,0.055842584360342215
3.7600000000000002,0.0021146247545116154
3.7640000000000002,-0.2890226989759158
3.7680000000000002,-0.1377481032268907
3.7720000000000002,-0.5606690461312613
3.7760000000000002,0.10640885437936315
3.7800000000000002,-0.17799698469810107
3.7840000000000003,-0.3451084631886061
3.7880000000000003,-0.2838011664089989
3.7920000000000003,-0.4788509127982383
3.7960000000000003,-0.38012169174999605
3.8000000000000003,-0.09520206801346265
3.8040000000000003,-0.3601281359783612
3.8080000000000003,-0.4178494825758811
3.8120000000000003,-0.30457527581046256
3.8160000000000003,-0.3868709021026022
3.8200000000000003,-0.8135775570166506
3.8240000000000003,-0.3700131526974696
3.8280000000000003,-0.36272970532030624
3.8320000000000003,-0.29387108884933844
3.8360000000000003,-0.5274039145946862
3.84,-0.8012757486129257
3.844,-0.7506192197958987
3.848,-0.40614426709863327
3.852,-0.7933327372152438
3.856,-0.6132009175941959
3.86,-0.8833099572045613
3.864,-0.7110741232689692
3.868,-0.775370361361978
3.872,-0.723375004067694
3.876,-0.9379819991300395
3.88,-0.42812226002876397
3.884,-0.7753251229928374
3.888,-0.7528073415621152
3.892,-0.6779451764897776
3.896,-0.8447357338769772
3.9,-0.8331532661050328
3.904,-1.1930359261126249
3.908,-0.9308788293976854
3.912,-0.8139652388991118
3.916,-0.6208439340907991
3.92,-0.44355421928061683
3.924,-0.6428313288413426
3.928,-0.6850089803733035
3.932,-0.6537876146001548
3.936,-1.0650386839562218
3.94,-0.6065567846175011
3.944,-0.8873522273211213
3.948,-0.6033368608662257
3.952,-0.8755230973364663
3.956,-0.570066181493066
3.96,-0.8904450255334041
3.964,-0.6697120488341508
3.968,-0.8275144775661554
3.972,-1.2515252177266083
3.976,-0.9508472095745777
3.98,-0.8247539763752163
3.984,-0.8704076216216885
3.988,-0.5937973727278644
3.992,-0.7198596272495195
3.996,-0.41806548897717943
4.0,-0.9917606159941057
4.0040000000000004,-0.7661306829305116
4.008,-0.6155771355813178
4.0120000000000005,-0.6395226286725416
4.016,-0.8262033705369725
4.0200000000000005,-0.8188366466974527
4.024,-0.8985976024404486
4.0280000000000005,-0.8154787556053688
4.032,-0.8488062264104737
4.0360000000000005,-0.33813139950045873
4.04,-0.4758938198200343
4.0440000000000005,-0.7280515952685114
4.048,-0.5572240322400878
4.0520000000000005,-0.7534675030396077
4.056,-0.7720166998937688
4.0600000000000005,-0.7240929895510533
4.064,-0.8655903012987479
4.0680000000000005,-0.6772099042768394
4.072,-0.7407450238925088
4.0760000000000005,-0.5939682114766649
4.08,-0.24377041223313178
4.0840000000000005,-0.4500615761686097
4.088,-0.386381088136761
4.0920000000000005,-0.5492322935030435
4.096,-0.3919001900301663
4.1,-0.15720745018334414
4.104,-0.16442693341552367
4.108,0.07073118333811029
4.112,-0.5624427800711017
4.116,-0.24336908720959735
4.12,-0.1796102344337095
4.124,-0.21073052607409706
4.128,-0.16670344469881887
4.132,-0.31370588522153386
4.136,-0.29145162068692176
4.14,0.03723103032532696
4.144,-0.05263265255071141
4.148,-0.10853605989239574
4.152,-0.17176783920976846
4.156,-0.047553874618272526
4.16,-0.35302212071387035
4.164,-0.10251640890485725
4.168,-0.09721140616131535
4.172,0.3135484491761391
4.176,0.07597213663024757
4.18,-0.2791781170350719
4.184,-0.04438703922819505
4.188,-0.12330417880605246
4.192,-0.023090600846398718
4.196,0.6868328355025733
4.2,0.025673755870849108
4.204,0.3855693616671241
4.208,0.12800045258331888
4.212,0.4975230504541378
4.216,0.28672338303906547
4.22,0.39350448516209424
4.224,0.37317446237939295
4.228,0.2704126555803358
4.232,0.13794264065645287
4.236,0.49667026561483163
4.24,0.2591414303610622
4.244,0.4587405301390381
4.248,0.5695695106511953
4.252,0.7303713893038799
4.256,0.702489338910435
4.26,0.21162413575869232
4.264,0.24952576734967885
4.268,0.40288029137644665
4.272,0.7117155323432774
4.276,0.16374796308544992
4.28,0.8928524260926022
4.284,0.48316580150256266
4.288,0.4488197781553179
4.292,0.9634095504224252
4.296,0.6540227042686131
4.3,0.5043370634796226
4.304,0.8093058065087464
4.308,0.618121648621959
4.312,1.0721739501988001
4.316,0.3956524170075329
4.32,0.4643947116956682
4.324,1.016498535141724
4.328,0.7079757438171453
4.332,0.8125294918571639
4.336,0.4723157400604304
4.34,0.8164541242227873
4.344,0.936429067015006
4.348,0.7648357598222066
4.352,0.4941607685961273
4.356,0.554485115028883
4.36,0.9404163809960271
4.364,0.4533648885195585
4.368,0.8166188731968411
4.372,0.5924701385412859
4.376,0.6341761626385228
4.38,0.8756697621800614
4.384,0.7047339963704518
4.388,0.5653280390487668
4.392,0.33436755198359847
4.396,0.9253144734446915
4.4,0.37834720437268426
4.404,0.9592059017479972
4.408,0.9035158390937287
4.412,0.702495789234739
4.416,0.8318127141675483
4.42,1.0186293394011028
4.424,0.8850476193562811
4.428,0.8452436239548226
4.432,0.6941597130979157
4.436,0.6830304366122213
4.44,0.6067422740118976
4.444,0.8296254383996311
4.448,0.43958582788705886
4.452,1.3102938629761007
4.456,0.6516341487411645
4.46,0.553366098393684
4.464,0.541305246556139
4.468,0.5357544453659231
4.472,0.5658945819841771
4.476,0.811191842704449
4.48,0.6816149310690353
4.484,0.5603241306024718
4.488,0.44624731809562007
4.492,0.3539923619044919
4.496,0.530773584452057
4.5,0.456759381546594
4.5040000000000004,0.8184201524664391
4.508,0.3379011387729822
4.5120000000000005,0.09913832934077554
4.516,0.7805681646156748
4.5200000000000005,0.12177609463686029
4.524,-0.009367376467624866
4.5280000000000005,0.12195353619777219
4.532,0.10205603798922269
4.5360000000000005,0.4312681782130706
4.54,0.482680806094895
4.5440000000000005,0.05904686087603503
4.548,0.23441732806917487
4.5520000000000005,0.3287490254309676
4.556,-0.12217431982453525
4.5600000000000005,0.42119217556175526
4.564,0.09912720946481839
4.5680000000000005,0.1629146347300036
4.572,0.18271873747586698
4.5760000000000005,0.4619068464948806
4.58,-0.3507666267634087
4.5840000000000005,-0.3408733513279218
4.588,0.5249017117015705
4.5920000000000005,0.10000345553403289
4.596,0.13735942191398764
4.6000000000000005,0.11438324613401403
4.604,-0.20865906007085747
4.6080000000000005,-0.08086099146030527
4.612,-0.22986598452434814
4.616,-0.2584554237252995
4.62,0.05546204981331074
4.624,-0.6516625364915921
4.628,-0.3587612703993531
4.632,0.019150313677825825
4.636,-0.5889853120158421
4.64,-0.4036917661976982
4.644,0.17509770821926612
4.648,-0.0935293458851828
4.652,-0.2589469815650143
4.656,-0.3345879093156324
4.66,-0.5074789954332686
4.664,-0.21850733796375985
4.668,-0.6496410762413676
4.672,-0.45287073860019345
4.676,-0.47763087852838637
4.68,-0.18693964430771726
4.684,-0.3858901030994767
4.688,-0.6057126090627296
4.692,-0.42081048464163007
4.696,-0.5265861843791805
4.7,-0.46150581620183206
4.704,-0.6273351017822478
4.708,-1.0099804911576646
4.712,-0.7714041470457402
4.716,-0.4865453673164659
4.72,-0.38667996328670096
4.724,-0.978009198239373
4.728,-0.7457287190231717
4.732,-0.2702536724547201
4.736,-0.42921765565294884
4.74,-1.252035117036244
4.744,-0.7848306840560577
4.748,-1.0382204364741083
4.752,-1.1631028255989107
4.756,-0.5377198881469633
4.76,-0.7647950388735171
4.764,-0.6889318653078018
4.768,-0.6541213829944613
4.772,-0.6917753559300126
4.776,-0.7143896199474904
4.78,-1.134744289449412
4.784,-0.9997072567554407
4.788,-1.0125117052850543
4.792,-0.4789240211528861
4.796,-0.6264302181870192
4.8,-0.8039412302280431
4.804,-0.5960014661597962
4.808,-0.6500771578405928
4.812,-0.6832367392569436
4.816,-0.6255159860826437
4.82,-0.9343927517704623
4.824,-0.17216566800090793
4.828,-1.1551075753740396
4.832,-0.8421474249504366
4.836,-0.41287229556262783
4.84,-0.7356170544412841
4.844,-0.5136938374421743
4.848,-0.6923009633985212
4.852,-0.7431296625473878
4.856,-1.0066245426835883
4.86,-0.49114729695468656
4.864,-0.796276940001293
4.868,-0.26420020890777046
4.872,-0.3597075976675061
4.876,-0.5054807844676052
4.88,-0.5541420330808425
4.884,-0.7842578473295891
4.888,-0.35949104931705667
4.892,-0.5851462369529681
4.896,-1.002148498571912
4.9,-0.31860132424042986
4.904,-0.2883221040597287
4.908,-0.09802033938387772
4.912,-0.7615417159062198
4.916,-0.39471699562385754
4.92,-0.17729511098586032
4.924,-0.2955858882609359
4.928,-0.4228048481436703
4.932,-0.3566023000777751
4.936,-0.41136437731189845
4.94,-0.22192353787108446
4.944,-0.7560113647947833
4.948,0.008652248448174416
4.952,-0.5705715311484597
4.956,-0.37019245896710296
4.96,-0.18367049050555462
4.964,-0.031723942855920284
4.968,-0.08548223197339352
4.972,-0.2574271564087155
4.976,-0.1790266755073257
4.98,-0.08422772946170959
4.984,-0.07636145191816246
4.988,-0.20230325915966452
4.992,0.10874526634450273
4.996,0.18523853750415564
5.0,0.09494494318027193
5.0040000000000004,-0.24797160379388944
5.008,0.07227255582477993
5.0120000000000005,-0.10421740466464756
5.016,-0.08165157813160209
5.0200000000000005,-0.017620678519464333
5.024,-0.02048864927448038
5.0280000000000005,-0.052795051961559536
5.032,-0.18221619253536742
5.0360000000000005,-0.03427737193205188
5.04,0.4823233632260675
5.0440000000000005,0.07008635123693122
5.048,-0.03581959124859041
5.0520000000000005,-0.025992905572280012
5.056,0.3968299469873005
5.0600000000000005,0.7780288030494567
5.064,0.17538686412089644
5.0680000000000005,0.4167436979021282
5.072,0.6555740257615632
5.0760000000000005,0.30478202034098223
5.08,0.3450038414004354
5.0840000000000005,0.23033289670669801
5.088,0.35356739053825526
5.0920000000000005,0.6937796214958802
5.096,0.6108444177396565
5.1000000000000005,0.8352302811605936
5.104,0.5510514313146299
5.1080000000000005,0.3997694200863914
5.112,0.7976346715934394
5.1160000000000005,0.7763269174806133
5.12,0.5311729053353771
5.124,0.7774046404292358
5.128,0.2225731480410053
5.132,0.4259527780762291
5.136,0.7223002209578407
5.14,0.5872962696506654
5.144,0.6780951474753997
5.148,0.8881468204132135
5.152,0.7499991346524183
5.156,0.5513227682159413
5.16,0.5682982830133092
5.164,0.735025912780485
5.168,0.6325577446753512
5.172,1.004873100824139
5.176,0.7607451788692752
5.18,0.92655232436817
5.184,0.8573224920545186
5.188,0.6531276087045949
5.192,1.0555118443238298
5.196,1.1432775246941151
5.2,0.8868633437148922
5.204,0.7221757238674336
5.208,0.48910465796219244
5.212,1.1306159014289416
5.216,0.7939521532314276
5.22,1.064955850908814
5.224,1.2421965820189897
5.228,0.7544051319923205
5.232,0.8601395080888139
5.236,0.7611372817527909
5.24,0.5023021042980473
5.244,0.7848552228117406
5.248,0.9311689455989722
5.252,0.6735699548932694
5.256,0.7991745735206982
5.26,0.7059517993842729
5.264,0.9504814801141652
5.268,0.6893139408239437
5.272,0.6081295434168146
5.276,0.444329659436833
5.28,0.43079218700609995
5.284,0.4450129307674646
5.288,0.9614532755992461
5.292,0.6241237684807711
5.296,0.5323083827039101
5.3,0.5537710463716383
5.304,0.170227025932485
5.308,0.6122694796706609
5.312,0.46550225306438275
5.316,0.5669115980097729
5.32,0.7383102389439579
5.324,0.43331148732598485
5.328,0.24172603594351533
5.332,0.7670760443409039
5.336,0.4322305098272335
5.34,0.4998513545836532
5.344,0.48192569408287966
5.348,0.5497130817239508
5.352,0.5724193197950096
5.356,0.5985279427689565
5.36,0.36739299782075857
5.364,0.20533282541148157
5.368,0.32510490053267865
5.372,0.34243057153637185
5.376,-0.09326747976595681
5.38,0.26662742415693674
5.384,0.3205806810546073
5.388,-0.20204990021307187
5.392,0.2282104685922596
5.396,0.11954289150585468
5.4,0.29194714200142385
5.404,0.26738859237879353
5.408,-0.2708660051090861
5.412,-0.09247625628849637
5.416,0.6394090845078741
5.42,0.10294608439258553
5.424,0.038025987624588045
5.428,-0.15534018238299607
5.432,0.018014270294248277
5.436,-0.4045194966397156
5.44,-0.1700353620021121
5.444,-0.027388357931169338
5.448,0.2801517270809091
5.452,-0.29486232342579743
5.456,-0.1960729607045332
5.46,-0.28070518355705176
5.464,-0.12721299717281187
5.468,0.14297991473129734
5.472,-0.5843548610917999
5.476,-0.2818295541553107
5.48,-0.31564203200129176
5.484,-0.366941035322478
5.488,-0.7535965740756871
5.492,-0.7434408816730714
5.496,-0.4473883991415041
5.5,-0.3593151552535674
5.5040000000000004,-0.15385624403330989
5.508,-0.6382167753052692
5.5120000000000005,-0.38619702496112496
5.516,-0.7844446953382858
5.5200000000000005,-0.6525560517195734
5.524,-0.542442147842066
5.5280000000000005,-0.9341857040443513
5.532,-0.39196262040742885
5.5360000000000005,-0.5397575658355556
5.54,-0.6924919965046106
5.5440000000000005,-0.6261394307970143
5.548,-0.8530569162047914
5.5520000000000005,-0.7630317310368974
5.556,-0.8738847742914784
5.5600000000000005,-0.8203989023353964
5.564,-0.4713732172607378
5.5680000000000005,-0.6698708533416358
5.572,-0.7578126329022687
5.5760000000000005,-0.7471392495107968
5.58,-0.8545479488319759
5.5840000000000005,-0.8826506201982132
5.588,-0.5181150321990302
5.5920000000000005,-0.8155407386556571
5.596,-0.6436067862582562
5.6000000000000005,-0.9287727622838722
5.604,-0.6010127920361096
5.6080000000000005,-0.6971799383751689
5.612,-0.5589518183384694
5.6160000000000005,-1.115915562963583
5.62,-1.0115903443480863
5.6240000000000006,-0.6380705393781397
5.628,-0.8966723184078454
5.632,-0.8479751332155647
5.636,-1.048788990323469
5.64,-0.7827840348608456
5.644,-0.9661386143954986
5.648,-0.6016905442345319
5.652,-0.7389280582255257
5.656,-1.0181770434070672
5.66,-0.5676726914034916
5.664,-0.8771159643496458
5.668,-0.9303265546369589
5.672,-0.692660280996616
5.676,-0.9723515559168604
5.68,-0.5797485102595814
5.684,-0.8463031067083271
5.688,-0.5918178015594685
5.692,-1.0499752610529207
5.696,-0.9024762072630998
5.7,-0.5536145114899109
5.704,-0.5520393564825723
5.708,-0.6926075945510491
5.712,-0.7798081597198516
5.716,-0.7207764810153712
5.72,-0.5987461018759096
5.724,-0.5600671836988818
5.728,-0.713980265868084
5.732,-0.36610058904139686
5.736,-0.5070579443912218
5.74,-0.7111146541979285
5.744,-0.41056752972471255
5.748,-0.4133430346693952
5.752,-0.4245212316602759
5.756,-0.15475897205551975
5.76,-0.32038191980352904
5.764,-0.40694966312541786
5.768,-0.4936851950694622
5.772,-0.2574010966291211
5.776,-0.7928747595135432
5.78,-0.04060218652112907
5.784,-0.049137981455266044
5.788,-0.2904389828624556
5.792,-0.38856591173644894
5.796,-0.3300836659402603
5.8,-0.30558366395473435
5.804,-0.05946211365048773
5.808,-0.2006372499585372
5.812,-0.4164942064825713
5.816,0.02557926339539747
5.82,0.03026716167531257
5.824,-0.08988891851091245
5.828,-0.12056015910235603
5.832,-0.031162828635032183
5.836,0.375280365897517
5.84,-0.0010455167322318201
5.844,-0.13557678045100857
5.848,-0.18967387570004868
5.852,0.3003546755877423
5.856,0.09680573602961132
5.86,0.08437382098459104
5.864,0.20749374403477935
5.868,0.22570429890560353
5.872,0.49653157820473093
5.876,0.07861541327943142
5.88,0.357706538416059
5.884,0.4176585715613754
5.888,-0.017914094942265313
5.892,0.19911613146649884
5.896,0.18438944925126588
5.9,0.437130541222159
5.904,0.7014161455577002
5.908,0.4164524213458279
5.912,0.3058388478629589
5.916,0.2315873141544227
5.92,0.8110136823362744
5.924,0.6369809420885852
5.928,0.5300656797121754
5.932,0.5124988975638286
5.936,0.4029828241957125
5.94,0.7698808020380302
5.944,0.5967555731578329
5.948,0.28729044018404426
5.952,0.6292057812461544
5.956,0.7088527046507003
5.96,0.884625606176885
5.964,1.0095643553124725
5.968,0.8422203268411224
5.972,0.6261006518468196
5.976,0.47717248813586177
5.98,0.6597052096355319
5.984,0.8788791897183382
5.988,0.6374713254666237
5.992,0.46517360815742403
5.996,0.9109320711242552
6.0,0.3379736186435752
6.0040000000000004,0.7556099219047632
6.008,0.7929097585175808
6.0120000000000005,0.670124766029742
6.016,0.5890613059497096
6.0200000000000005,1.3334006545982238
6.024,0.8751436826406689
6.0280000000000005,0.6725815845942655
6.032,1.0092359841128529
6.0360000000000005,1.0612778057397947
6.04,0.8353377027747945
6.0440000000000005,0.8390301986566655
6.048,0.899894406032825
6.0520000000000005,0.6496149428807606
6.056,0.6686893833291063
6.0600000000000005,0.6262515552491636
6.064,0.6821152852970457
6.0680000000000005,0.601998241418815
6.072,0.6543230825536597
6.0760000000000005,0.41742436075083195
6.08,0.6093240042388863
6.0840000000000005,0.8677402992889449
6.088,0.8130225812582318
6.0920000000000005,0.9297602781794608
6.096,1.0508643208039294
6.1000000000000005,0.5699580878154173
6.104,0.6639895595009849
6.1080000000000005,1.0189508119079145
6.112,0.7053818658073124
6.1160000000000005,0.8046167815992525
6.12,0.3986333793023087
6.1240000000000006,0.9802007819930083
6.128,0.4546198321149739
6.132000000000001,0.43809740332813984
6.136,0.7525838624700574
6.140000000000001,0.7155149677169231
6.144,0.40168810472539695
6.148,0.7785912367804243
6.152,0.6032405768876897
6.156,0.736247352969773
6.16,0.5322327474714355
6.164,0.5896444062237856
6.168,0.004686000632311227
6.172,0.3323173074979344
6.176,0.37660543012903563
6.18,0.5111829543189267
6.184,0.10007669423345755
6.188,0.5753968849424842
6.192,0.31178704617822883
6.196,-0.03438464420631765
6.2,0.1817437050629404
6.204,0.03265316035184293
6.208,0.21212098485615105
6.212,0.11429698863881749
6.216,0.12027152642113162
6.22,0.4177667342745921
6.224,0.1523517156532567
6.228,0.43480412216845765
6.232,-0.156194409954698
6.236,0.22056941887575404
6.24,0.13107800260404212
6.244,0.008719059508658845
6.248,0.15082043577731158
6.252,0.33004358333302164
6.256,-0.264095106681871
6.26,0.24602954063878693
6.264,-0.08323326679117281
6.268,-0.11327377240057403
6.272,0.09486746351882563
6.276,-0.1406369658888484
6.28,-0.2535265951960855
6.284,-0.40163385825807696
6.288,-0.4363911698040155
6.292,0.021753531606226922
6.296,-0.124624680171467
6.3,-0.4898873863579756
6.304,-0.45995500183975624
6.308,-0.32772742805794003
6.312,-0.3850266010844272
6.316,-0.7338192521534015
6.32,-0.36554442884412297
6.324,-0.524680937206475
6.328,-0.5054848638583487
6.332,-0.1313255995158839
6.336,-0.3865774489876269
6.34,-0.5452139941928787
6.344,-0.4692395092425023
6.348,-0.19877212653913506
6.352,-0.5126775350369366
6.356,-0.4494895012637038
6.36,-0.6886955220230486
6.364,-0.9719512370640484
6.368,-0.41796599602545503
6.372,-0.6727142534311676
6.376,-0.6511032697895903
6.38,-0.34573310694834675
6.384,-0.41836799166006094
6.388,-0.6950257460787432
6.392,-0.7431167784276025
6.396,-0.7467294471258795
6.4,-0.830944513611595
6.404,-0.41330482938839425
6.408,-0.6076706789113199
6.412,-0.8933512616332308
6.416,-0.6827040845835165
6.42,-0.5381969135921972
6.424,-0.9192929559968837
6.428,-0.752527003385304
6.432,-0.7663916928171796
6.436,-1.0469281874346403
6.44,-0.5876436059799857
6.444,-0.9048523736015566
6.448,-0.6946286177842631
6.452,-0.4019053205665394
6.456,-0.9354854954352307
6.46,-1.0634886542436757
6.464,-0.8090520008906192
6.468,-0.6554690713950528
6.472,-0.6175587766684674
6.476,-0.7870236145282252
6.48,-0.5816389200283014
6.484,-1.0679658221635586
6.488,-0.8202372358094528
6.492,-0.7125339390698163
6.496,-0.8691056707456664
6.5,-0.7852906041073104
6.5040000000000004,-0.7224619567610628
6.508,-0.46557529069197173
6.5120000000000005,-0.7400256199730271
6.516,-0.47981680487116646
6.5200000000000005,-0.43028590145614404
6.524,-0.4298722384006859
6.5280000000000005,-0.8822622406654101
6.532,-0.7993491218339713
6.5360000000000005,-0.5426512977026294
6.54,-0.4791120896079947
6.5440000000000005,-0.48609457375299203
6.548,-0.6583987223525957
6.5520000000000005,-0.41561513072521394
6.556,-0.4517179297454631
6.5600000000000005,-0.6610524421547963
6.564,-0.44081383709157185
6.5680000000000005,-0.3035805407882206
6.572,-0.6817988543502087
6.5760000000000005,-0.50529650173653
6.58,-0.16392232959393027
6.5840000000000005,-0.6776289817831305
6.588,-0.7230071909513103
6.5920000000000005,-0.2301546938626861
6.596,-0.6722581848295313
6.6000000000000005,-0.259758513733782
6.604,-0.17434951686861858
6.6080000000000005,-0.15592607206134124
6.612,-0.342014846957674
6.6160000000000005,-0.40679688501396577
6.62,-0.23563304067597013
6.6240000000000006,-0.2789366480455052
6.628,-0.03941241882351415
6.632000000000001,-0.3157305669592953
6.636,-0.03963664042873863
6.640000000000001,-0.5342568007946705
6.644,-0.41399597498203056
6.648000000000001,-0.31482658233762445
6.652,0.0692062174030311
6.656000000000001,0.10456122544123904
6.66,-0.17933588915871101
6.664,-0.3186478582699577
6.668,-0.11224040637121538
6.672,-0.1400587832203727
6.676,0.11882944876376972
6.68,-0.03193592653585582
6.684,-0.0026260266771185314
6.688,0.15181795279508606
6.692,0.09665819293905809
6.696,0.26267201475347657
6.7,0.24336279259035015
6.704,0.06692243193602676
6.708,0.19716163342540102
6.712,-0.1537438098481106
6.716,0.09764876194725908
6.72,0.4203356248783947
6.724,0.49233013179401325
6.728,0.16416221176224668
6.732,0.19507297689529068
6.736,0.2553311895228827
6.74,0.3028968566737517
6.744,0.6999626298366488
6.748,0.3357856606473235
6.752,0.5213144287975826
6.756,0.6299991042162372
6.76,0.35852116718423577
6.764,0.39812229104205954
6.768,0.570533595990111
6.772,0.5625750674167742
6.776,0.7516324179691005
6.78,0.49927361913404905
6.784,0.8891256226068474
6.788,0.7832886896136783
6.792,0.4530598477420702
6.796,0.7508724079642458
6.8,0.9435219257426768
6.804,0.7711567160098619
6.808,0.4421019475246152
6.812,0.7517262321374195
6.816,0.8302546721986879
6.82,1.0171810953167215
6.824,0.9068113593699332
6.828,0.721174790140325
6.832,0.7437577504128843
6.836,0.6929434705698188
6.84,0.8988873124801573
6.844,0.6151828417286911
6.848,1.1373646281083127
6.852,0.8873467578764889
6.856,0.7421935099269281
6.86,0.5047713261005118
6.864,0.3135013813694355
6.868,0.6312647743447996
6.872,0.580802886863718
6.876,0.9014541533613822
6.88,0.7179938363512034
6.884,0.9857045519577947
6.888,0.46695299605251295
6.892,0.966796556885191
6.896,0.5397230174331538
6.9,0.9849117216786145
6.904,0.66136817285336
6.908,0.6068654659105847
6.912,0.4850968835940702
6.916,0.9506409884984718
6.92,0.746483023132312
6.924,0.7511714585575108
6.928,0.9868936631945585
6.932,0.5599944634920714
6.936,0.6799673014060149
6.94,0.8116013718231176
6.944,0.5024173101327299
6.948,0.6178065121657857
6.952,0.6495407331593637
6.956,0.8434278933583983
6.96,0.8121115377522108
6.964,0.6122440943087413
6.968,0.7135925681455815
6.972,0.45802254145761634
6.976,0.2991926397891088
6.98,0.5445610431562927
6.984,0.6390084289640856
6.988,0.27526911849702873
6.992,0.5062023825372552
6.996,0.46754893741350856
7.0,0.5627009389021695
7.0040000000000004,0.6260937493582167
7.008,0.7644004734314498
7.0120000000000005,0.19307969537734884
7.016,0.3671106117531283
7.0200000000000005,0.11594209254925747
7.024,0.10363123017121112
7.0280000000000005,0.33524107798225866
7.032,0.17940360112729203
7.0360000000000005,0.38450587914136763
7.04,0.3125428577125678
7.0440000000000005,0.3702697410718624
7.048,0.04028077912247949
7.0520000000000005,0.23421067088402459
7.056,0.37267260435944766
7.0600000000000005,-0.1400136699839866
7.064,0.06168889339322076
7.0680000000000005,0.11019101285597495
7.072,0.03436086127877742
7.0760000000000005,0.004552162528444086
7.08,0.08121917651664667
7.0840000000000005,-0.006502443137093906
7.088,0.14481876843279418
7.0920000000000005,-0.28879997255329054
7.096,-0.007063277088042608
7.1000000000000005,-0.2687444093197936
7.104,-0.05603140398226013
7.1080000000000005,-0.09783337883536372
7.112,-0.08078418218211454
7.1160000000000005,-0.05776810935196655
7.12,0.2273489394845596
7.1240000000000006,-0.1789432596545707
7.128,-0.35823350791439096
7.132000000000001,-0.16282349350258482
7.136,-0.08120941979025342
7.140000000000001,-0.3378454873516863
7.144,0.02449154710725332
7.148000000000001,-0.24899654041245717
7.152,-0.282090378712284
7.156000000000001,-0.2792557726349737
7.16,-0.38732573992073893
7.164000000000001,-0.49040033278510936
7.168,-0.7365638632978664
7.172,-0.5191073961251852
7.176,-0.2303840209698922
7.18,-0.7057389244208252
7.184,-0.6811131017705395
7.188,-0.5811690589171449
7.192,-0.23253744029912327
7.196,-0.6236627415947121
7.2,-0.063394048525107
7.204,-0.8293128530154477
7.208,-0.4942783048247916
7.212,-0.44456993052564936
7.216,-0.846298135237515
7.22,-0.8105048511085543
7.224,-1.0001624785899272
7.228,-0.7678176732695217
7.232,-0.5390376678904052
7.236,-0.7891308037224558
7.24,-0.9312257629929754
7.244,-0.8674593126718121
7.248,-0.8136242103727384
7.252,-0.8898817121951293
7.256,-0.88757047013059
7.26,-0.587183810882271
7.264,-0.768527460315581
7.268,-0.7254283089127542
7.272,-0.7264869071765218
7.276,-0.8398931047549733
7.28,-1.1158782421946294
7.284,-0.6006040443285686
7.288,-0.9075790892474638
7.292,-1.1250547613048807
7.296,-0.562536009314802
7.3,-0.5786706401049438
7.304,-0.6862720990238198
7.308,-0.582336955930629
7.312,-0.9169421981816681
7.316,-0.6848979599328211
7.32,-0.833888953883849
7.324,-0.6980213648007064
7.328,-0.9445440620239925
7.332,-0.6966795234884609
7.336,-0.7584033982022287
7.34,-0.7401064026342602
7.344,-0.7397688542003386
7.348,-0.7436766163536165
7.352,-0.4728865329977959
7.356,-0.48259829753789163
7.36,-0.39486737634373414
7.364,-0.6087643056213266
7.368,-0.568700782705093
7.372,-0.7915381669038547
7.376,-0.6801787704866173
7.38,-0.6381406030334918
7.384,-0.5493786792067631
7.388,-0.5716711629365159
7.392,-0.7952143597025728
7.396,-0.5949566337468915
7.4,-0.2828073058585789
7.404,-0.5072657780128639
7.408,-0.539588825968568
7.412,-0.4696481557452748
7.416,-0.781713904820146
7.42,-0.46119527463853044
7.424,-0.3610320682411523
7.428,-0.2564682565280446
7.432,-0.20265958232033593
7.436,-0.26756787358901435
7.44,-0.2299393930508874
7.444,-0.2064494657633126
7.448,-0.47142605918185043
7.452,0.0020830422543111626
7.456,-0.39047924608103957
7.46,-0.13932596656495505
7.464,0.01677967865355401
7.468,-0.1618400674113172
7.472,0.03298308849041559
7.476,-0.11905198717183141
7.48,0.0548901005257286
7.484,0.3356143186583969
7.488,-0.18526530669519892
7.492,0.045321541965176466
7.496,-0.23687920226035106
7.5,-0.08205185401929492
7.5040000000000004,-0.06449205075619438
7.508,-0.08977869652146406
7.5120000000000005,0.16368994987836905
7.516,0.4412976156555473
7.5200000000000005,0.20997030274082518
7.524,0.2887943370356125
7.5280000000000005,0.5418293859908694
7.532,0.22199253874623323
7.5360000000000005,0.12761444821649306
7.54,0.22570288190459448
7.5440000000000005,0.41025650638943423
7.548,0.5112057102329848
7.5520000000000005,0.3338660332655012
7.556,0.3586315764427241
7.5600000000000005,0.21472130066730413
7.564,0.26104398397522294
7.5680000000000005,0.42413004071356925
7.572,0.6959233556352895
7.5760000000000005,0.41973932400401825
7.58,0.6272577352207014
7.5840000000000005,0.38158711420289376
7.588,0.4131866417511576
7.5920000000000005,0.6579665247519164
7.596,0.5402020305040426
7.6000000000000005,0.9529519101120714
7.604,0.5130281666375064
7.6080000000000005,0.8178016942690287
7.612,0.5347578610245382
7.6160000000000005,0.3991133886087661
7.62,0.49049352112457234
7.6240000000000006,0.7743047256680251
7.628,0.29335084208644774
7.632000000000001,0.9053005304981717
7.636,0.561690173663906
7.640000000000001,0.9637185534043198
7.644,0.5727771901940769
7.648000000000001,0.6479159100487356
7.652,0.8159327100847888
7.656000000000001,0.8974122102941756
7.66,0.4513990673064409
7.664000000000001,0.7795655888616385
7.668,0.9026677284503178
7.672000000000001,1.004055537725999
7.676,1.011864033642355
7.68,0.9895736188164692
7.684,0.5854335735674787
7.688,0.8719527553749071
7.692,0.8142153410212923
7.696,0.4531279857031199
7.7,0.8057543680518778
7.704,0.9186860521831229
7.708,0.8890217733274077
7.712,0.742547822663371
7.716,1.3493022367258165
7.72,0.8478588840474872
7.724,0.5366883234165958
7.728,0.6749651239936028
7.732,0.9702300033457512
7.736,0.9594492893321784
7.74,0.7470707262562924
7.744,0.5966780427489882
7.748,0.798247463996417
7.752,0.8816871241355742
7.756,0.6839900779933579
7.76,0.7202520581298393
7.764,0.7439368625338311
7.768,0.7645000986334212
7.772,0.9657254724068554
7.776,0.7284449884083195
7.78,0.4462108009273442
7.784,0.8512262928244497
7.788,1.1761194545597626
7.792,0.5911389991990351
7.796,0.6555470593103807
7.8,0.6547944536314255
7.804,0.7729978525747
7.808,0.7285328151597537
7.812,0.6738154597555284
7.816,0.7302080841776912
7.82,0.5029105265677785
7.824,0.495388190867158
7.828,0.5052290599048138
7.832,0.5711538121736792
7.836,0.5989650371944886
7.84,0.571527027829671
7.844,0.05075255829033681
7.848,0.3893477485849315
7.852,0.28836922797035336
7.856,0.27429802034864686
7.86,0.4606542671366798
7.864,0.07393566389737039
7.868,0.07101221696390969
7.872,0.3958076950240734
7.876,0.5610250649808828
7.88,0.07530814300154609
7.884,0.33991539526242287
7.888,0.15349179960133807
7.892,0.13000560944984563
7.896,0.13885153225706978
7.9,0.06519214475563458
7.904,0.3321321776091596
7.908,0.19168298179004464
7.912,-0.08020450779130234
7.916,-0.09576635794899613
7.92,0.13130269891880564
7.924,0.3162595291636666
7.928,-0.09030930262237084
7.932,0.03889768101176569
7.936,0.03241138692997979
7.94,0.12340118886507886
7.944,0.054130288205084115
7.948,-0.2451811894223848
7.952,-0.12899097399974663
7.956,-0.3174009306777436
7.96,-0.6821936594340259
7.964,-0.4312997665726515
7.968,-0.4982468920720517
7.972,-0.37860802370733604
7.976,-0.2549640556090293
7.98,-0.062163452670356556
7.984,-0.573262081611907
7.988,-0.20152747111099478
7.992,-0.3893572060628055
7.996,-0.16400190465089381
8.0,-0.5193991160833453
8.004,-0.2463460567406498
8.008000000000001,-0.5515108026857349
8.012,-0.36434330541013904
8.016,-0.8598789633261397
8.02,-0.4564521615304979
8.024000000000001,-0.6157362221287527
8.028,-0.46953083268383944
8.032,-0.5771501363975514
8.036,-0.8769889586353586
8.040000000000001,-1.0331460211127106
8.044,-0.7677649692653634
8.048,-0.5415729474709794
8.052,-0.8686039611467623
8.056000000000001,-0.6227686378807875
8.06,-0.595521927182497
8.064,-0.9106192112508308
8.068,-0.619778072723312
8.072000000000001,-0.6998664905391674
8.076,-0.7620486916735474
8.08,-0.8586528858662738
8.084,-0.8074349809823058
8.088000000000001,-0.8138461796504787
8.092,-0.6808961701495164
8.096,-0.7217000348644165
8.1,-0.5569641189832013
8.104000000000001,-0.6167909121986539
8.108,-0.783863919331669
8.112,-0.7665969074308289
8.116,-0.900291764739538
8.120000000000001,-0.8651941125428657
8.124,-0.7535384487816158
8.128,-0.817631341863512
8.132,-1.0326717294460206
8.136000000000001,-0.963720150017901
8.14,-0.9308570888103713
8.144,-0.7645032850682087
8.148,-0.6716261017053146
8.152000000000001,-0.8649187599886419
8.156,-0.5863711725333614
8.16,-0.7787182237974912
8.164,-0.9754475373544926
8.168000000000001,-0.8340411469100277
8.172,-0.6955722556555265
8.176,-0.9903712337739138
8.18,-0.6650693796435847
8.184000000000001,-0.6938288254822749
8.188,-0.5712786935881995
8.192,-0.903446569985496
8.196,-0.9259203572309711
8.2,-0.5788879934327655
8.204,-0.5904457433928406
8.208,-0.8150161169280243
8.212,-0.3489913895978921
8.216,-0.541284225733832
8.22,-0.6544117647526939
8.224,-0.9629838595174721
8.228,-0.6144971784192164
8.232,-0.7274520713700844
8.236,-0.8391489421011876
8.24,-0.3604884598966856
8.244,-0.32639888115636245
8.248,-0.23757717072845955
8.252,-0.9179278740423475
8.256,-0.6071882901782032
8.26,-0.3731139722009934
8.264,-0.21607990745035976
8.268,-0.4311391691727461
8.272,-0.5379780075020577
8.276,-0.044432797407105595
8.28,0.11705074071127014
8.284,-0.23434654313873404
8.288,-0.28304072662326146
8.292,-0.34618552745203945
8.296,-0.31407357676142
8.3,-0.1712323065414322
8.304,-0.06853471953918662
8.308,0.1340319751460451
8.312,-0.09968436526259206
8.316,-0.4883962377264317
8.32,-0.4350666950709011
8.324,-0.5257192430028096
8.328,-0.25271519859056474
8.332,0.1508463026623338
8.336,0.4339882995862031
8.34,0.2338928440497563
8.344,0.2231138667328522
8.348,-0.2482873453572258
8.352,0.2753424751449738
8.356,0.01888823237360887
8.36,-0.12379707982489041
8.364,0.12881537838762003
8.368,0.06587340717493095
8.372,0.38842702040293303
8.376,0.1719499429943398
8.38,0.07275022024984662
8.384,0.20737818562386648
8.388,0.2650947696202849
8.392,0.46624978622859026
8.396,0.5110880145610335
8.4,0.32948632994654675
8.404,0.7524175349339245
8.408,0.30386222943509195
8.412,0.3306658039042062
8.416,0.44133833360402114
8.42,0.5878184988106437
8.424,0.46435357833684404
8.428,0.6644886628908925
8.432,-0.06076163216005315
8.436,0.24156507183092546
8.44,0.817507164826139
8.444,0.40209007820361453
8.448,0.8385298244298767
8.452,0.36997615604001227
8.456,0.9719110201159131
8.46,0.6193565062101474
8.464,0.5855791297374247
8.468,0.445312181054562
8.472,0.762871371169613
8.476,0.7748171961171954
8.48,1.1971049933759543
8.484,0.9989587669685875
8.488,0.7380093249018865
8.492,0.9328718119552151
8.496,0.7724265992785321
8.5,0.4830848077054038
8.504,0.794190513323255
8.508000000000001,1.1635557108714343
8.512,0.710679820498868
8.516,0.6140701043845538
8.52,0.8018501152722125
8.524000000000001,0.573988009440538
8.528,0.6229626064228792
8.532,0.6453688193952672
8.536,0.6699383800415966
8.540000000000001,0.9664340057389474
8.544,1.1977752641095964
8.548,0.7711889517164466
8.552,0.7088129901950502
8.556000000000001,0.949453270479045
8.56,1.307129037210947
8.564,0.8902112473208456
8.568,0.8762345807087404
8.572000000000001,0.11956217065336439
8.576,0.664834043647287
8.58,0.7291436745891368
8.584,0.5255498774267393
8.588000000000001,0.8607586662799104
8.592,0.9088108809734567
8.596,0.9095567004469215
8.6,0.6951185018823515
8.604000000000001,0.7469200099643347
8.608,0.4040369277805614
8.612,0.5359866783271987
8.616,0.4077006800985406
8.620000000000001,0.5767355282383779
8.624,0.3436307146333921
8.628,0.7128146210464775
8.632,0.4274223273170181
8.636000000000001,0.8950253549065413
8.64,0.3078758804754536
8.644,0.5462545138609637
8.648,0.6781334493841759
8.652000000000001,0.3236166816354731
8.656,0.7698966544032292
8.66,0.7355602136830601
8.664,0.7278033045621979
8.668000000000001,0.6372881783247019
8.672,0.3339787191548662
8.676,0.37050812689617774
8.68,0.21446337851243474
8.684000000000001,0.20312769244122453
8.688,0.32439780008889996
8.692,0.26733185587315056
8.696,0.24287981743050097
8.700000000000001,0.11326454148095227
8.704,0.6154330542509545
8.708,0.059401232182514974
8.712,0.587948200965728
8.716,-0.08255430973399516
8.72,0.04324032320769594
8.724,0.21390600094538892
8.728,0.2858447701831982
8.732,-0.026735143552552187
8.736,0.07109693955212701
8.74,0.11069999169436845
8.744,0.5590716075169231
8.748,0.279721340025941
8.752,-0.0987282386579382
8.756,-0.0029108605285281947
8.76,-0.131169444711804
8.764,-0.08685872779196889
8.768,-0.4460975961901843
8.772,0.244930400420565
8.776,-0.3597465039679667
8.78,-0.03159686524742836
8.784,-0.2538709067604849
8.788,-0.49627505821810725
8.792,-0.2176728694702389
8.796,-0.2431662426847712
8.8,-0.4670471522996825
8.804,-0.25327605443714873
8.808,-0.6939233728367149
8.812,-0.5732003990177503
8.816,0.23525862417489235
8.82,-0.43623960631487174
8.824,-0.5794109779440739
8.828,-0.40159505624302727
8.832,-0.37585331971785374
8.836,-0.3644535096504653
8.84,-0.7147000225618739
8.844,-0.7141617342986083
8.848,-0.3504497656412172
8.852,-0.4358472751952831
8.856,-0.5686113906326602
8.86,-0.6128560274470707
8.864,-0.6898202560037541
8.868,-0.6788335705875023
8.872,-0.5883582366090808
8.876,-0.3410023563529518
8.88,-0.3994500907943627
8.884,-0.6136481756019654
8.888,-0.723101085446903
8.892,-0.9309621810868476
8.896,-0.9354179166116177
8.9,-0.7363339158250928
8.904,-0.8613598199494832
8.908,-1.1200511728138314
8.912,-0.8893238144475473
8.916,-0.5416771445206483
8.92,-0.9494046013687034
8.924,-0.6713606925214182
8.928,-0.6232776051886921
8.932,-0.5602890890280343
8.936,-0.5105976744450764
8.94,-0.3138691171250849
8.944,-0.9743214242888704
8.948,-0.8133941514028765
8.952,-0.7880395671149854
8.956,-1.0514569789356356
8.96,-1.1222962812339883
8.964,-0.7512316456317015
8.968,-0.5844267728976608
8.972,-0.8565178568166338
8.976,-0.9172492409884923
8.98,-0.5192385318618831
8.984,-0.779053758935144
8.988,-0.9033624548022419
8.992,-0.9395429068442394
8.996,-0.642945648103561
9.0,-0.7857044682664373
9.004,-0.5023796893150831
9.008000000000001,-0.772220860945153
9.012,-0.4074497392489913
9.016,-0.6448203047817905
9.02,-0.7777316382594471
9.024000000000001,-0.8210807154610836
9.028,-0.9343258632475149
9.032,-0.7000513598814598
9.036,-0.7615252994367501
9.040000000000001,-0.5765814891775176
9.044,-0.5806796881905973
9.048,-0.5291500650895894
9.052,-0.6506011474498242
9.056000000000001,-0.5732060323444977
9.06,-0.6387665144827777
9.064,-0.6681490442597764
9.068,-0.413330051415417
9.072000000000001,-0.5383037189469403
9.076,-0.3125792130153221
9.08,-0.43507610543948594
9.084,-0.6717445276641225
9.088000000000001,-0.4603200998140738
9.092,-0.35624901603118864
9.096,-0.8837547877401051
9.1,-0.5403058442749376
9.104000000000001,-0.7467244344216434
9.108,-0.4207554078882987
9.112,-0.14753610098131453
9.116,-0.2753943307489528
9.120000000000001,-0.1897069004802871
9.124,-0.4660205334258119
9.128,-0.3907021565407591
9.132,-0.32443684943269513
9.136000000000001,-0.4411743554423158
9.14,0.015862340327266577
9.144,-0.42244354616330576
9.148,-0.20521198153522902
9.152000000000001,-0.267119227793409
9.156,0.3123886696084081
9.16,0.08140041746443119
9.164,-0.25424989220873373
9.168000000000001,0.00682758522675706
9.172,-0.0474433010680176
9.176,0.0937315747807747
9.18,-0.0536092997786211
9.184000000000001,0.03802219535390099
9.188,-0.02515018425762089
9.192,0.023428100728407786
9.196,0.27536681888114056
9.200000000000001,0.19836949554722932
9.204,0.26492805860598145
9.208,0.3465846038270075
9.212,0.3892178029599736
9.216000000000001,0.33617063458823915
9.22,-0.052413475404605
9.224,0.0711652676796597
9.228,0.3763831532382951
9.232,-0.09386461503961502
9.236,0.42502669516342806
9.24,0.5741998136768619
9.244,0.47395531330877716
9.248,0.27160113722475315
9.252,0.5490373075328626
9.256,0.24491303245667384
9.26,0.7795082777721994
9.264,0.32917113684065424
9.268,0.41660139670746843
9.272,0.49030506335557644
9.276,0.4125865254444242
9.28,0.9633910121819225
9.284,0.5277494821518134
9.288,0.7694010257909834
9.292,0.8559096442253193
9.296,0.7384468404025384
9.3,0.9385865824838453
9.304,0.645217859129637
9.308,0.7912688576261778
9.312,0.894758795598656
9.316,0.69263343611308
9.32,0.9599868242764895
9.324,0.6153726338022156
9.328,0.7342346760461572
9.332,0.3436334295288354
9.336,0.9963471046475962
9.34,0.8973727063394412
9.344,0.7076021220056598
9.348,1.1978374540377275
9.352,0.6811356987912207
9.356,1.0757933961386772
9.36,0.8755591461512339
9.364,0.977105974307464
9.368,0.8643675734126962
9.372,0.7987876591663817
9.376,0.562556997268667
9.38,0.7201612271443814
9.384,0.6523361762451478
9.388,0.9649514655443397
9.392,0.6341669052735697
9.396,1.0977783940730959
9.4,0.5576660468832294
9.404,0.6676864288392114
9.408,0.8621185411361949
9.412,0.5052966056117281
9.416,0.7847485870152159
9.42,0.939549469871973
9.424,0.659405480684485
9.428,0.8739451463063994
9.432,0.8675985058330926
9.436,0.6853323643813901
9.44,0.9862167934128376
9.444,0.6930186334044385
9.448,0.7517470618435608
9.452,0.7590431578702981
9.456,0.2636492001847279
9.46,0.5466950483130949
9.464,0.6234800535648024
9.468,0.47405498395281026
9.472,0.5394184764319303
9.476,0.5697857658938957
9.48,0.20450241629192895
9.484,0.5787449449232932
9.488,0.8137942050247038
9.492,0.6250065326554889
9.496,0.21844042429702792
9.5,0.4966409996290712
9.504,0.5611719223315684
9.508000000000001,0.41371379839099903
9.512,0.4377328636063719
9.516,0.2685541226398137
9.52,0.2646986910775413
9.524000000000001,0.1555088308244555
9.528,0.5037515471175144
9.532,0.5500142509995324
9.536,-0.0486980257916893
9.540000000000001,0.56344178281915
9.544,0.11585355191100989
9.548,-0.31944817396291897
9.552,0.07342056512639757
9.556000000000001,0.238475781653494
9.56,0.19787897693988193
9.564,0.4212238977197683
9.568,0.34467986271657286
9.572000000000001,0.0252157494058855
9.576,-0.318314020720411
9.58,0.12911863278275965
9.584,-0.1990791815583882
9.588000000000001,0.06887680451736417
9.592,0.6450051317385699
9.596,-0.056907329441875903
9.6,-0.24536901315833434
9.604000000000001,-0.3688006217693328
9.608,-0.36631076183142197
9.612,-0.07328419697731003
9.616,-0.2692065661149318
9.620000000000001,-0.27823412164554867
9.624,-0.3790842898371346
9.628,-0.3315636879922301
9.632,-0.05511528846903896
9.636000000000001,-0.29255534650498655
9.64,-0.06814477359857479
9.644,-0.4486041114116061
9.648,-0.6922461354820257
9.652000000000001,-0.5304737302855835
9.656,-0.3465561822832398
9.66,-0.5373356753621317
9.664,-0.8160987279418828
9.668000000000001,-0.4005720823661147
9.672,-0.10574169108949516
9.676,-0.624127603663643
9.68,-0.5472633453649024
9.684000000000001,-0.23177853505070578
9.688,-0.8978106381514193
9.692,-0.843187239173303
9.696,-0.9413429101300804
9.700000000000001,-0.7637598209009747
9.704,-0.4377023632198669
9.708,-0.7790676294143996
9.712,-0.5963477020380945
9.716000000000001,-0.6210357961482301
9.72,-0.3817609554933253
9.724,-0.7473517569905034
9.728,-0.5153767180124446
9.732,-0.8819688804403485
9.736,-0.7314496264335684
9.74,-0.202571569873641
9.744,-0.7500324642899167
9.748,-0.6433155868163111
9.752,-0.47250797699989183
9.756,-0.800012752230151
9.76,-0.5653443317526384
9.764,-0.9319510237937604
9.768,-0.883803695676079
9.772,-0.7350201364023436
9.776,-0.6180275104821968
9.78,-0.5156350903807172
9.784,-0.536620245232025
9.788,-0.862234502383207
9.792,-0.8074390604675523
9.796,-1.1969096130666537
9.8,-0.763609694199239
9.804,-0.47712921914726186
9.808,-1.0018558388099763
9.812,-0.983421049183453
9.816,-0.9027936056380058
9.82,-0.851978203919689
9.824,-0.6498300655704234
9.828,-0.7973743247347164
9.832,-0.7263769619347901
9.836,-0.7502007064772624
9.84,-0.7950122993872032
9.844,-0.46992174552870314
9.848,-0.7341836110659198
9.852,-0.7110909228477063
9.856,-0.5340840281265731
9.86,-0.745787610291653
9.864,-0.7616731244718843
9.868,-0.6251151696225082
9.872,-0.7714804635673859
9.876,-0.45577221373787846
9.88,-0.49506974712436413
9.884,-0.5194672030199352
9.888,-0.8793552485053548
9.892,-0.7529162155772671
9.896,-0.6495544513039326
9.9,-0.7074833629135479
9.904,-0.3662587771261518
9.908,-0.5858264053022036
9.912,-0.5756022443300732
9.916,-0.37039781146728834
9.92,-0.567339092952958
9.924,-0.28004081296945427
9.928,-0.42920003655481853
9.932,-0.7573876176541958
9.936,-0.5197011526580813
9.94,0.17131030597212848
9.944,-0.04789500194907287
9.948,-0.49341771410189056
9.952,-0.3343033176574982
9.956,-0.0028911772128110136
9.96,-0.051129353767848884
9.964,-0.3846699887205126
9.968,-0.44944347922545647
9.972,-0.12257635830134482
9.976,-0.44230928887315746
9.98,0.18851417748716448
9.984,0.21204345386805445
9.988,-0.2195100320012348
9.992,0.2222223115069089
9.996,-0.08887817977758426
10.0,0.2834068034839754
10.004,-0.0591085728172044
10.008000000000001,0.1575725352890297
10.012,0.3566725866210074
10.016,0.025745597555571945
10.02,0.24814569772042244
10.024000000000001,0.5811725936099883
10.028,0.10208475731765358
10.032,-0.03626990561960858
10.036,0.01883128742436435
10.040000000000001,0.15439847847731913
10.044,0.4002844862571608
10.048,0.5748917939144806
10.052,0.36500315100683495
10.056000000000001,0.2949526543123215
10.06,0.4788342010634008
10.064,0.22604062718258577
10.068,0.4287247328618896
10.072000000000001,0.5086940389393538
10.076,0.26825285555500056
10.08,0.28007941445444245
10.084,0.22715324113415927
10.088000000000001,0.5363969076615296
10.092,0.49449447556695697
10.096,0.5058351716968256
10.1,0.47268680534985485
10.104000000000001,0.6235931853440441
10.108,0.7089026201014366
10.112,0.11740535854832806
10.116,0.39364844943095645
10.120000000000001,0.6387416286509878
10.124,0.5992462240173548
10.128,0.4514275320986267
10.132,0.633306476386512
10.136000000000001,0.6172692288965879
10.14,0.5665500128806871
10.144,0.8096148207363865
10.148,0.9442957334762001
10.152000000000001,1.1418650228666019
10.156,1.080681584535077
10.16,0.5419471212567075
10.164,0.7141326870816086
10.168000000000001,1.1136373881547674
10.172,0.6842352934744496
10.176,1.0695166082667267
10.18,0.6982768182728152
10.184000000000001,0.5945218842252176
10.188,0.8912686452845549
10.192,0.6862791356843806
10.196,0.5442892286106873
10.200000000000001,0.5960834516469565
10.204,0.7229553997706483
10.208,1.0934252112814966
10.212,0.813867887095739
10.216000000000001,1.0879271942291542
10.22,0.6315970550130211
10.224,0.7705640524307786
10.228,0.7177165276283501
10.232000000000001,0.948278693291234
10.236,0.6730502666202804
10.24,0.7605628852562902
10.244,0.6545572562385709
10.248,0.7622193504898727
10.252,0.49946803472758106
10.256,0.3512510339866469
10.26,1.1058510404373147
10.264,0.797252938016925
10.268,0.8254645783274468
10.272,0.5367060412252307
10.276,0.9517972588153392
10.28,1.1406620213875363
10.284,0.5095244486640508
10.288,0.4676396710069523
10.292,0.7489972842327767
10.296,1.0861738279814925
10.3,0.38848825575491375
10.304,0.6987766606559648
10.308,0.36255125159742063
10.312,0.4729736934011707
10.316,0.5831225293732019
10.32,0.27355167289634535
10.324,0.35605349198908254
10.328,0.6794030773001596
10.332,0.7297031901960558
10.336,0.4993359747997965
10.34,0.789949903968526
10.344,0.2383258209248318
10.348,0.4792523460566046
10.352,0.192418514693539
10.356,0.3575041979402893
10.36,0.3144110584809243
10.364,0.3929209375467107
10.368,-0.015269692422258063
10.372,0.4695676929425365
10.376,0.11809787040961084
10.38,0.37740638802272747
10.384,0.3740696598154099
10.388,0.1435544008629108
10.392,0.010624510634656498
10.396,0.18179862201760072
10.4,0.07983533129734753
10.404,0.05901724084785593
10.408,-0.13393265198276189
10.412,0.02013418044815951
10.416,0.10750287298480857
10.42,0.03946306625636788
10.424,-0.3341513883094426
10.428,-0.07667985723174925
10.432,-0.27532109403966537
10.436,-0.11825400841234539
10.44,-0.0887420463156828
10.444,-0.1750794931556559
10.448,-0.18511509461480313
10.452,-0.27352150636124195
10.456,-0.3048459262022455
10.46,-0.15569769683064738
10.464,-0.08829034476422534
10.468,-0.27941596417107695
10.472,-0.3261975079472933
10.476,-0.3687590673284746
10.48,-0.32913241581290764
10.484,-0.4281209542151767
10.488,-0.16590297448419683
10.492,-0.4862640804558347
10.496,-0.3970354265053981
10.5,-0.27711747492830074
10.504,-0.5095467936723901
10.508000000000001,-0.13894206581496127
10.512,-0.638233130224698
10.516,-0.6812324176987846
10.52,-0.1786796655952918
10.524000000000001,-0.5032056187193404
10.528,-0.5069278060819877
10.532,-0.6638713023050684
10.536,-0.5483734833155405
10.540000000000001,-0.9671515542085012
10.544,-0.5090860893651483
10.548,-0.7618790425373361
10.552,-0.5629257447981055
10.556000000000001,-0.8100382876799532
10.56,-0.8532164733493754
10.564,-0.4318974788083303
10.568,-0.5028725576777804
10.572000000000001,-0.6289386498363838
10.576,-0.5273287234150473
10.58,-0.7010734004656355
10.584,-0.7378597997733997
10.588000000000001,-0.7701617922253037
10.592,-0.9317764605815957
10.596,-0.8021911040115266
10.6,-1.1251624097229989
10.604000000000001,-0.94997803703314
10.608,-0.5742870322466903
10.612,-0.7563649971670585
10.616,-0.9481610884966801
10.620000000000001,-0.6736386420922522
10.624,-0.4472775193928124
10.628,-0.7583133680411109
10.632,-0.7599088354395566
10.636000000000001,-0.7060655625654297
10.64,-0.915001851285533
10.644,-0.895799936074399
10.648,-0.45693650898223814
10.652000000000001,-0.4041825113818843
10.656,-0.8495404736889728
10.66,-1.0554574741622338
10.664,-1.0142311437535523
10.668000000000001,-0.889730393069461
10.672,-0.6496738862990487
10.676,-0.7106729670818481
10.68,-0.570456947154224
10.684000000000001,-0.5172333499311988
10.688,-0.8631859853872909
10.692,-0.7993512019022901
10.696,-0.7957211019525919
10.700000000000001,-0.3620008931902461
10.704,-0.2504455190437127
10.708,-0.7212386785262228
10.712,-0.5340146220634066
10.716000000000001,-0.7495479170696174
10.72,-0.5204563915586709
10.724,-0.7297348515301002
10.728,-0.048391842377136784
10.732000000000001,-0.6534517455802822
10.736,-0.49787992443648976
10.74,-0.31533462696680115
10.744,-0.43487732870437645
10.748000000000001,-0.39052290161964304
10.752,-0.6515482981693052
10.756,-0.5248246414972482
10.76,-0.5760157801933892
10.764,-0.6291662457147504
10.768,-0.4511777872124927
10.772,-0.3067293049486348
10.776,-0.13942663824675489
10.78,-0.44677625543536126
10.784,-0.2916737802200105
10.788,-0.18626440244219333
10.792,-0.3599128246443912
10.796,-0.09032365036986997
10.8,-0.10682051360984485
10.804,-0.40823477206702985
10.808,-0.1725842916339051
10.812,-0.03184403892311084
10.816,-0.056905243440780025
10.82,-0.12342106114350199
10.824,0.22468913596082235
10.828,0.05833019762150789
10.832,0.15258079488553344
10.836,-0.128057999172051
10.84,0.17104153924884705
10.844,0.03484211459997116
10.848,0.011026167984259733
10.852,0.19042176306057568
10.856,0.04408221478543291
10.86,0.25235126841392475
10.864,0.36558136841621724
10.868,0.2982119695808142
10.872,0.23233798116112497
10.876,0.16261534432158067
10.88,0.10344516168058734
10.884,-0.03763751468556953
10.888,0.20220969568981495
10.892,0.5753336166767185
10.896,0.49786978296093387
10.9,0.12508455230023613
10.904,0.21163491631002385
10.908,0.39598689765833994
10.912,0.8519558913361797
10.916,0.6075381034415073
10.92,0.5473424337913594
10.924,0.8230743494315977
10.928,0.4469795891655066
10.932,0.29646956666853475
10.936,0.2594390801662356
10.94,0.7590957257624529
10.944,0.5142925292183331
10.948,0.5724683175654076
10.952,0.8001568565184204
10.956,0.854240158878514
10.96,1.0416208304820933
10.964,0.6525854131934147
10.968,0.47662474667129706
10.972,0.599501093204533
10.976,1.1989483112085122
10.98,0.5507916730607922
10.984,0.8867352656885722
10.988,0.6617478821709664
10.992,0.6037075348301837
10.996,0.6310543765770606
11.0,0.9458996432490514
11.004,0.7488658862477624
11.008000000000001,0.8004463628944903
11.012,0.556631704473555
11.016,0.591406470051127
11.02,0.4799116444579108
11.024000000000001,0.8814143164974608
11.028,0.6341804964795136
11.032,0.7685297717594
11.036,0.8758503339150967
11.040000000000001,0.789447488410774
11.044,0.682176238700965
11.048,0.7456898775227516
11.052,0.5907676051660687
11.056000000000001,0.6970134937959597
11.06,0.8759553508902673
11.064,0.615954448573572
11.068,0.7096316260900434
11.072000000000001,0.732025834260008
11.076,1.161989823049678
11.08,0.9176137539040935
11.084,0.39527293391763263
11.088000000000001,0.8037109044972206
11.092,0.6062622940712821
11.096,0.8769897574248635
11.1,1.0092085717001278
11.104000000000001,0.9592800751025401
11.108,0.5819768850303962
11.112,0.6885181223111069
11.116,0.2844076268202813
11.120000000000001,0.5138776380757019
11.124,0.6432147800938023
11.128,0.6796276235284592
11.132,0.6088852097067057
11.136000000000001,0.8843136613163836
11.14,0.7702782803030814
11.144,0.6568028411161599
11.148,0.6227843892007769
11.152000000000001,0.8099819198303186
11.156,0.6882868734250063
11.16,0.5983265038188892
11.164,0.19982150529065862
11.168000000000001,0.4176246165071197
11.172,0.20996239370833641
11.176,0.2679076886003914
11.18,0.384675295621441
11.184000000000001,0.3975850514274259
11.188,0.136336937722504
11.192,0.3942753758912931
11.196,0.1441163595749752
11.200000000000001,0.4957825638672689
11.204,0.2857307467001362
11.208,0.27453884424437947
11.212,0.22944306262212413
11.216000000000001,0.3702291446218382
11.22,0.1303217074246261
11.224,0.24886485042338746
11.228,-0.0035060648574533615
11.232000000000001,0.17349894275137528
11.236,-0.1978912947681328
11.24,-0.11209602737774726
11.244,0.022436679163900394
11.248000000000001,-0.188398605504542
11.252,0.24663679131035304
11.256,-0.08409287197135033
11.26,-0.0719725251195206
11.264,-0.2760072102875562
11.268,-0.07761253727943693
11.272,0.006420034324516238
11.276,0.0581620687687594
11.28,-0.04618293273323787
11.284,-0.10325906121856576
11.288,0.034366146193774455
11.292,-0.3754848532537064
11.296,-0.442004141915071
11.3,-0.2039946603490742
11.304,-0.18551793019803292
11.308,-0.16437404768903813
11.312,-0.3806550334328792
11.316,-0.2634270644999822
11.32,-0.45840524325326343
11.324,-0.8311816557452417
11.328,-0.7092334491277803
11.332,-0.5659602394838549
11.336,-0.44621770380849135
11.34,-0.5144401471190914
11.344,-0.9649009405586697
11.348,-0.7827027018128381
11.352,-0.39121742411303934
11.356,-0.752182543243157
11.36,-0.347310554006914
11.364,-0.3561733440506042
11.368,-0.6879862554386795
11.372,-0.8683168387616985
11.376,-0.984209853003085
11.38,-0.2150774980478598
11.384,-0.7485822773832028
11.388,-0.8063971699573454
11.392,-0.9517040618688553
11.396,-0.6688444889127806
11.4,-0.7348980431790015
11.404,-0.6619247158189541
11.408,-0.7647227042846358
11.412,-0.7673443663234298
11.416,-1.2911715105378883
11.42,-0.9131323693375589
11.424,-0.9116811293252307
11.428,-0.7935507691144151
11.432,-0.47522680665740524
11.436,-0.9416082456796803
11.44,-0.8248085173756475
11.444,-0.5942076006845596
11.448,-0.9381679391724964
11.452,-0.788989818864203
11.456,-0.90808164113751
11.46,-0.853747379348832
11.464,-0.5917038494298033
11.468,-0.9613304665821234
11.472,-0.8344251093637657
11.476,-0.7121947491476521
11.48,-0.8818424663360797
11.484,-0.5380229516593416
11.488,-0.895644419831924
11.492,-0.9925272059826701
11.496,-0.941959951698485
11.5,-0.7764795613613497
11.504,-0.4635703012365396
11.508000000000001,-0.40312096612617043
11.512,-1.0312315570668966
11.516,-0.7796587329808738
11.52,-0.6841981501211178
11.524000000000001,-0.7898920645509866
11.528,-0.6640534753454574
11.532,-0.5833063760861295
11.536,-0.9767272667048785
11.540000000000001,-0.526450484050614
11.544,-0.8230523752922859
11.548,-0.46276055212490697
11.552,-0.600078612014868
11.556000000000001,-0.5384088248319113
11.56,-0.9857776895972048
11.564,-0.2397266456369248
11.568,-0.5155789595883196
11.572000000000001,-0.5482445603217203
11.576,-0.6076031935028284
11.58,-0.6356954944079191
11.584,-0.1093796049687144
11.588000000000001,-0.36871465934728725
11.592,-0.14776618998437224
11.596,-0.28608233327279303
11.6,-0.3199864104816566
11.604000000000001,-0.17473067339812795
11.608,-0.2703549486434362
11.612,0.00821701825403709
11.616,-0.29187066573653303
11.620000000000001,-0.4337847356649892
11.624,-0.16980517073771223
11.628,-0.12981387164636488
11.632,0.01370097222348976
11.636000000000001,-0.3806071798669797
11.64,-0.07071081893339257
11.644,-0.2833654072521903
11.648,0.16589268968270388
11.652000000000001,-0.18011734220069947
11.656,0.14576460606528457
11.66,0.17805404650415496
11.664,-0.3010541206882055
11.668000000000001,0.10569484841519813
11.672,0.1449379483222573
11.676,0.3648222838463591
11.68,-0.023017302371758447
11.684000000000001,-0.22871747389330793
11.688,-0.012291758343424192
11.692,0.42818476716808945
11.696,0.5176776840910347
11.700000000000001,-0.10168811815754875
11.704,-0.04890167174291876
11.708,0.3630508829207266
11.712,0.23368752107048063
11.716000000000001,0.32514751584842416
11.72,0.1257310627247373
11.724,0.3718486091224251
11.728,0.448262977471389
11.732000000000001,0.29171712117044973
11.736,0.26101105642179373
11.74,0.14791418587355204
11.744,0.46351109708135824
11.748000000000001,0.3862649106168358
11.752,0.2277208232741082
11.756,0.2781539040967471
11.76,0.6805758983679477
11.764000000000001,0.5170181863520901
11.768,0.6658818895873972
11.772,0.6331134983810605
11.776,0.6211963183193158
11.78,0.7535999564328034
11.784,0.625909976573716
11.788,0.8116969208253564
11.792,0.7008006096365137
11.796,0.7915920791915791
11.8,0.4150708809088547
11.804,0.8232595099217652
11.808,0.9484110420089183
11.812,1.010327591063351
11.816,0.8792531092015785
11.82,0.40403800426031045
11.824,0.6985620204870941
11.828,0.7485239313560862
11.832,0.9118227187782681
11.836,1.0239327625600874
11.84,0.7538147883391046
11.844,0.6804553771015236
11.848,0.5077683927707108
11.852,0.8571001052498194
11.856,1.085086848190524
11.86,0.5171114734546141
11.864,0.6828652300786989
11.868,0.637498249386937
11.872,0.7961682692817692
11.876,0.9521153411823661
11.88,0.5931571064370009
11.884,0.8210765631431568
11.888,0.7382845508916216
11.892,0.5745894731947638
11.896,0.7313307493766587
11.9,0.8739745444603066
11.904,1.0874978092377667
11.908,0.7318131134892102
11.912,0.5876435353071121
11.916,1.0131460231127893
11.92,0.9862906577761621
11.924,0.9412954035354014
11.928,0.6976608704771323
11.932,0.6723689224582131
11.936,0.7348495600364807
11.94,0.3777489067059279
11.944,0.7634409825279923
11.948,0.9789603636208979
11.952,0.8240593408065974
11.956,0.40744166902927914
11.96,0.5326545572322504
11.964,0.3302108618356627
11.968,0.7838920734478145
11.972,0.8034538802226409
11.976,0.5272756394266802
11.98,0.5205262963729173
11.984,0.6642825608356329
11.988,0.4041388939343943
11.992,0.11908967621652328
11.996,0.517110555848665
12.0,0.6822661270646445
12.004,0.8914999724641596
12.008000000000001,0.3697626870658456
12.012,0.5466719729404821
12.016,0.24922081609107025
12.02,0.3386948140396992
12.024000000000001,0.388232594124313
12.028,0.387954392452743
12.032,-0.1292012660118304
12.036,0.1782731405830184
12.040000000000001,0.08656379373591469
12.044,0.020276048627864945
12.048,0.4279563318201546
12.052,0.5361628474010925
12.056000000000001,0.01667738533667079
12.06,0.24790836963580715
12.064,0.04165290070874328
12.068,-0.11349854049302321
12.072000000000001,0.08731834454786092
12.076,-0.03155939691904466
12.08,0.5157208049584432
12.084,0.2049274355202884
12.088000000000001,0.05074689162831702
12.092,0.09314932460942438
12.096,0.04448580044659593
12.1,-0.05221813292737951
12.104000000000001,0.048693894450188874
12.108,-0.13064894170321012
12.112,-0.16796915946262972
12.116,-0.2858154896426418
12.120000000000001,-0.17590247885831634
12.124,-0.2573816684825902
12.128,0.005871039804019318
12.132,-0.46169526325154064
12.136000000000001,0.10010069675222677
12.14,-0.34632937212289067
12.144,-0.591596507677438
12.148,-0.4110939658608019
12.152000000000001,-0.5554005431838486
12.156,-0.42559718445773265
12.16,-0.6770373336446682
12.164,-0.6521593646033261
12.168000000000001,-0.26909093429016373
12.172,-0.38835822554561356
12.176,-0.6297387932555151
12.18,-0.23271523114331866
12.184000000000001,-0.6026717421073339
12.188,-0.337405893918744
12.192,-0.48488895126226494
12.196,-0.5487177541447634
12.200000000000001,-0.5558227717440045
12.204,-0.6428732598268176
12.208,-0.5106981593359602
12.212,-0.7187468708190566
12.216000000000001,-0.8519546484300647
12.22,-0.45276613282812805
12.224,-0.8068111405078953
12.228,-1.0681031491101005
12.232000000000001,-0.8779451748152056
12.236,-0.3703491336552217
12.24,-1.3703771343492437
12.244,-0.5932699070878968
12.248000000000001,-0.8277033017954563
12.252,-1.0450178568514845
12.256,-0.5601782427792791
12.26,-0.8336340896793046
12.264000000000001,-0.7069051288134692
12.268,-0.930712451862066
12.272,-0.8631316048816506
12.276,-0.9207271576728284
12.280000000000001,-0.6865391403483994
12.284,-0.9124786572688508
12.288,-0.6175581044099195
12.292,-0.7344454997654779
12.296,-0.7024950979173099
12.3,-0.8693887788975968
12.304,-0.7145891486911169
12.308,-0.7883366026221055
12.312,-0.8879071561837106
12.316,-0.7795912987298195
12.32,-0.7123571362214286
12.324,-0.797037789216643
12.328,-0.7149625878399763
12.332,-0.9543565377386904
12.336,-0.7013710018763929
12.34,-0.7262673702880738
12.344,-0.682006308462719
12.348,-0.49371899585221857
12.352,-0.4723609581640471
12.356,-0.6690178899016463
12.36,-1.1834700839684102
12.364,-0.6198918684997591
12.368,-1.0440091038058719
12.372,-0.8351641828615889
12.376,-0.44807947882516386
12.38,-0.6410711459179427
12.384,-0.9687326388201832
12.388,-0.505985521702617
12.392,-0.6824959720045907
12.396,-0.48770539669226265
12.4,-0.4556035046378217
12.404,-0.6507983326533697
12.408,-0.5602029938301611
12.412,-0.4895530659265758
12.416,-0.4479154250468417
12.42,-0.26320723632473
12.424,-0.1871733879056317
12.428,-0.5409513047910685
12.432,-0.5384718100518632
12.436,-0.18655551721763775
12.44,-0.13856445771381937
12.444,-0.19492544492267574
12.448,-0.30765071989215775
12.452,-0.3129409689908715
12.456,-0.041739453095281015
12.46,0.04994510025464893
12.464,-0.24846154819405508
12.468,-0.5096555554414647
12.472,0.08248195899010671
12.476,-0.37865150665912783
12.48,-0.33385625345947034
12.484,-0.21634225832460957
12.488,0.15171637776989322
12.492,0.2426016288485261
12.496,-0.4077951907755024
12.5,-0.04839354265223299
12.504,-0.05849509917170839
12.508000000000001,-0.08879454992571315
12.512,0.14178923177399316
12.516,-0.1029883498444182
12.52,0.22480698123782922
12.524000000000001,0.3395269991303385
12.528,0.2693549311134408
12.532,0.04373114895625532
12.536,0.17950183693205246
12.540000000000001,0.34608877628402
12.544,0.1486711731915027
12.548,0.06801972920076241
12.552,0.20162015992760282
12.556000000000001,0.6716628793826018
12.56,-0.051346228005406225
12.564,0.5996113852143798
12.568,0.2133277688766934
12.572000000000001,0.22877386867924063
12.576,0.7595411615426118
12.58,0.34001615772496063
12.584,0.4154750112742642
12.588000000000001,0.35132345788458275
12.592,0.7562970747242581
12.596,0.44623050163177347
12.6,0.3374043979175654
12.604000000000001,0.8682955914542632
12.608,0.7671278187436406
12.612,0.2947703971543158
12.616,0.7091710705243879
12.620000000000001,0.43617074082166846
12.624,0.5920178246066771
12.628,0.6418268767889874
12.632,0.25160330663447694
12.636000000000001,1.0952455205739204
12.64,0.6568943207023694
12.644,0.8513787788223688
12.648,1.3180588789632393
12.652000000000001,1.0371283718896487
12.656,0.7688807226092448
12.66,0.7034253014053679
12.664,0.8357215004541603
12.668000000000001,0.5800682035813536
12.672,0.5213624983424486
12.676,1.020633330222271
12.68,0.9322027364129097
12.684000000000001,0.6264033812760881
12.688,0.6068877266152249
12.692,0.7614494340916824
12.696,0.6133785677567347
12.700000000000001,0.923754417103748
12.704,0.8942550462043147
12.708,0.7055043967329856
12.712,0.916397097574073
12.716000000000001,0.9999295036112045
12.72,0.40455871672281685
12.724,0.7794833933862472
12.728,0.9675580432149927
12.732000000000001,0.7518459848356704
12.736,0.7623148448217141
12.74,0.5617396436568376
12.744,0.7866967455705682
12.748000000000001,0.7004805619416691
12.752,0.7206517700810466
12.756,0.994034156505208
12.76,0.8821772276165806
12.764000000000001,1.0040074778479235
12.768,0.7960178106675839
12.772,1.0371789802933442
12.776,0.8311159710265618
12.780000000000001,0.879406271486242
12.784,0.3522357478584342
12.788,0.13712458722658327
12.792,0.5827973165982121
12.796000000000001,0.5672651567123882
12.8,0.7567043514378581
12.804,0.3172702242745499
12.808,0.7369075737479388
12.812,0.3863719955011359
12.816,0.18638249009233526
12.82,0.14387297445835373
12.824,0.381867367956235
12.828,0.38848819880255914
12.832,0.22816533202500108
12.836,0.3536943942741724
12.84,0.8519379447966136
12.844,0.3762268376686363
12.848,0.27505886698843135
12.852,0.0939386599863331
12.856,0.2623553099277369
12.86,0.598922599544454
12.864,0.38449790961216457
12.868,0.4142046734089486
12.872,0.256928706628957
12.876,0.5213054682159298
12.88,0.6474587659266603
12.884,0.07015848993928749
12.888,0.18585545010846166
12.892,0.06284257340869917
12.896,0.16834210964719187
12.9,-0.06846855279156598
12.904,0.3328767319496922
12.908,0.26724424804378477
12.912,0.18979754600613172
12.916,0.35875221065600726
12.92,-0.23568059011157932
12.924,-0.5712992013281617
12.928,0.066295777981019
12.932,-0.1040087769002314
12.936,-0.10523994278390003
12.94,-0.1893951710520255
12.944,-0.3495014166209376
12.948,-0.22042373079876665
12.952,-0.29934200307189796
12.956,-0.1085544351991419
12.96,-0.12991801272278408
12.964,-0.4410038769446122
12.968,-0.14009249833027712
12.972,-0.3476211165395471
12.976,-0.2788560138681258
12.98,-0.08156302422737521
12.984,-0.49020191040968053
12.988,-0.307054404386172
12.992,-0.4750583319417919
12.996,-0.7206531106717777
13.0,-0.36628221381411397
13.004,-0.3770801012869758
13.008000000000001,-0.687922839172954
13.012,-0.5021825244744007
13.016,-0.7434812079733764
13.02,-0.6515722841984298
13.024000000000001,-0.35464844986760863
13.028,-0.5432188712340011
13.032,-0.7341107069710183
13.036,-0.6003899672873247
13.040000000000001,-0.4786911667144107
13.044,-0.6860914493925448
13.048,-0.602540392904107
13.052,-0.6385902206651042
13.056000000000001,-0.8988163402416485
13.06,-1.0269079254415936
13.064,-0.7498679353818304
13.068,-1.1131420059275823
13.072000000000001,-0.7001186235242367
13.076,-0.7991972887739898
13.08,-0.9571485410068107
13.084,-0.7285945479552728
13.088000000000001,-0.8723198844727513
13.092,-0.40811555985997494
13.096,-0.7266915169844544
13.1,-1.0631150656314108
13.104000000000001,-0.8499762017759456
13.108,-1.0007500092544384
13.112,-0.8709062386405194
13.116,-0.6391886185528182
13.120000000000001,-0.8121373826937963
13.124,-0.9345916121493153
13.128,-0.9335505680691295
13.132,-0.7639930690079931
13.136000000000001,-0.7185536136751919
13.14,-1.1116542700595204
13.144,-0.7774868518783756
13.148,-0.7736035811394567
13.152000000000001,-0.6114373714142245
13.156,-0.5783842405487613
13.16,-0.638152332526234
13.164,-0.9608732028047461
13.168000000000001,-0.6455265664314307
13.172,-0.6164086146272998
13.176,-0.6875199325168048
13.18,-0.8117682688251705
13.184000000000001,-0.6261430110116891
13.188,-0.3264955485024616
13.192,-0.748414155387681
13.196,-0.8406525862096239
13.200000000000001,-0.6375462058887236
13.204,-0.8057790686124223
13.208,-0.3718743856788275
13.212,-0.6685167132920004
13.216000000000001,-0.24520648487069052
13.22,-0.8801663252105378
13.224,-0.9603287352469192
13.228,-0.679703760928671
13.232000000000001,-0.548385452350356
13.236,-0.4705658177131551
13.24,-0.810300631077377
13.244,-0.5113770861190673
13.248000000000001,-0.5491614843609032
13.252,-0.27749804519461135
13.256,-0.7676438625706699
13.26,-0.35976843026556554
13.264000000000001,-0.6368317912270998
13.268,-0.19420502824600566
13.272,-0.4820097597042283
13.276,-0.3585087949091078
13.280000000000001,-0.3547046897455636
13.284,-0.35118470181240474
13.288,0.23826666574329058
13.292,-0.6091155224363486
13.296000000000001,-0.26920466179550384
13.3,-0.746917816192645
13.304,-0.10159488354529742
13.308,-0.5300216695209364
13.312000000000001,-0.05994506201904391
13.316,0.04980598883950414
13.32,-0.09994024062513844
13.324,0.018570234943135318
13.328,-0.23052349194288776
13.332,-0.12568092896781777
13.336,-0.038799798289473164
13.34,-0.03609750353475212
13.344,-0.045818193946911445
13.348,0.02143368084619658
13.352,-0.2906567180106597
13.356,0.053085725614937296
13.36,0.3964329089870561
13.364,0.02919138653729203
13.368,0.09522042359185623
13.372,0.32929398997252757
13.376,0.06325737038945217
13.38,0.41999166490832307
13.384,0.5041750758450837
13.388,0.14598096299174462
13.392,0.28008690940637276
13.396,0.35934281835555903
13.4,0.5546787394306124
13.404,0.38977212263589767
13.408,0.2506274101512209
13.412,0.778758178441431
13.416,0.5661784513899569
13.42,0.8668628398006764
13.424,0.3504139240189016
13.428,0.6073043508274953
13.432,0.4732012522614595
13.436,0.6862194195333519
13.44,0.52558334280115
13.444,0.5501189567206445
13.448,0.427647149263513
13.452,0.8445865689092483
13.456,0.5758735847579303
13.46,0.5867946267853674
13.464,0.5668407961329337
13.468,0.38021460840644816
13.472,1.0659409810448772
13.476,0.45357434883531494
13.48,0.7467425968059891
13.484,0.6050938673702528
13.488,0.8377686569022479
13.492,0.22193782989401578
13.496,0.6390846858132773
13.5,0.5786699096137207
13.504,0.9244732473298086
13.508000000000001,1.0708993867601615
13.512,0.6479254534978297
13.516,0.7651360345221527
13.52,0.868393771209055
13.524000000000001,1.156859877223702
13.528,1.1051679814288513
13.532,0.6240155520146622
13.536,0.8595068543975124
13.540000000000001,0.7895032017428827
13.544,0.6628968435781486
13.548,0.6138423363775297
13.552,0.5838788669612185
13.556000000000001,0.8035336430411046
13.56,0.5142090562613508
13.564,0.7296900317301297
13.568,0.6356492495191701
13.572000000000001,0.6676560555936143
13.576,0.6161968605240052
13.58,0.9056133584665621
13.584,0.5871063567589696
13.588000000000001,0.8682395950056518
13.592,0.78897112508987
13.596,0.6797909948993657
13.6,0.8258906250826804
13.604000000000001,0.7680528981593322
13.608,0.5674957784304853
13.612,0.32892793103744605
13.616,0.9277963484501135
13.620000000000001,0.8349203511153301
13.624,0.5910913679543504
13.628,1.0303452086106886
13.632,0.4570242095249454
13.636000000000001,0.7092747969852692
13.64,0.7799211765234297
13.644,0.39711916627314586
13.648,0.453046015947022
13.652000000000001,0.547804859816915
13.656,0.5672810193513971
13.66,0.41215999307520845
13.664,0.26881467750289123
13.668000000000001,0.7913092301313798
13.672,0.48382993817694986
13.676,0.2428304038553698
13.68,-0.08137841436978765
13.684000000000001,0.7043595738036059
13.688,-0.03138661256746328
13.692,0.26383401901865855
13.696,0.2143738065571203
13.700000000000001,0.5207853184535296
13.704,0.11264830692464115
13.708,0.21240754998663197
13.712,0.3792552388629077
13.716000000000001,0.11317225309786434
13.72,-0.1650121291337417
13.724,-0.11374748236893695
13.728,0.10950446649615955
13.732000000000001,0.18944893855034975
13.736,0.23030554722629146
13.74,-0.25744926966413706
13.744,0.026073591472670656
13.748000000000001,-0.10434501526106046
13.752,0.33122738636967863
13.756,0.07216755459176719
13.76,0.081082530732378
13.764000000000001,0.09534739320040339
13.768,-0.4834158428798422
13.772,0.17051593857084382
13.776,-0.14598258642488154
13.780000000000001,0.04498520866167277
13.784,-0.5442075436278332
13.788,-0.22334005519425
13.792,-0.06276480746236943
13.796000000000001,-0.21207864972189838
13.8,-0.4275476502223381
13.804,-0.45915587497956756
13.808,-0.327429051716482
13.812000000000001,-0.2527451591276018
13.816,-0.22668057537967065
13.82,-0.5862892434458327
13.824,-0.5265727870495589
13.828,-0.22574118102203322
13.832,-0.1584916171945095
13.836,-0.5817048277565149
13.84,-0.48737355591685877
13.844,-0.4227677206075925
13.848,-0.8811734358295461
13.852,-0.40592928909200643
13.856,-0.7521220581490308
13.86,-0.7052357319677981
13.864,-0.554940728996255
13.868,-0.6787793454449582
13.872,-0.830460099398924
13.876,-0.8148311785990211
13.88,-0.5881062883751949
13.884,-0.9717974627877504
13.888,-0.6820709614156392
13.892,-0.6874778646965768
13.896,-0.32656161863018035
13.9,-1.0647688021315762
13.904,-0.7260854499864671
13.908,-0.5617152744867671
13.912,-0.8867396512066911
13.916,-0.9703270575422692
13.92,-0.7910401445858379
13.924,-0.6619767268297803
13.928,-0.8315918857473246
13.932,-1.1743819353488938
13.936,-1.3048761583200355
13.94,-0.6636961021689074
13.944,-1.0485753326530454
13.948,-0.7419514945116471
13.952,-0.7543338048682153
13.956,-0.6855029644450784
13.96,-0.8266460960419888
13.964,-0.886678648090486
13.968,-0.8171236102087013
13.972,-0.8331687628514263
13.976,-0.594592547329861
13.98,-0.5666977302455314
13.984,-1.0200824463890568
13.988,-0.7244367273520425
13.992,-0.6049408760068506
13.996,-0.6904949359603103
14.0,-0.7366303218490237
14.004,-0.7180049242474268
14.008000000000001,-0.6592566714899785
14.012,-0.42547650020511313
14.016,-0.9447673362423528
14.02,-0.6897790168986986
14.024000000000001,-1.1568038343792868
14.028,-1.2248770278695944
14.032,-0.7321974433850594
14.036,-0.5777807443415929
14.040000000000001,-0.7045485510098535
14.044,-0.3951032145973915
14.048,-0.2178578794566074
14.052,-0.5423176034884971
14.056000000000001,-0.9721172847300987
14.06,-0.49944202192820686
14.064,-0.5858880245213709
14.068,-0.6208287537343536
14.072000000000001,-0.2522703800624854
14.076,-0.5304597867761083
14.08,-0.7864176147011896
14.084,-0.007691626723393463
14.088000000000001,-0.3902400309659926
14.092,-0.8590389721797855
14.096,-0.38053819280733786
14.1,-0.31503161750678166
14.104000000000001,-0.1484589572652506
14.108,-0.5033426684667985
14.112,-0.7219938836007522
14.116,-0.417975706765569
14.120000000000001,-0.12249622630269552
14.124,-0.21122955035879556
14.128,-0.05511183952768983
14.132,-0.12894046943924764
14.136000000000001,-0.17349710064672513
14.14,-0.4835746908680355
14.144,-0.05977612900493212
14.148,0.10012385194408102
14.152000000000001,0.21432876843118098
14.156,-0.04081146172019173
14.16,-0.28099218601984793
14.164,0.40352231476208783
14.168000000000001,-0.00861769425329133
14.172,0.029591006162457037
14.176,0.07662949982221275
14.18,0.6269691517711549
14.184000000000001,-0.18088255686704063
14.188,-0.02725441977234433
14.192,0.14494741036333497
14.196,-0.07902190907514789
14.200000000000001,0.246328591127991
14.204,-0.1356639765324044
14.208,0.4992421950805726
14.212,0.543235333892972
14.216000000000001,0.2556899039503735
14.22,-0.007144000918176963
14.224,0.1392297063522131
14.228,0.36240930733154214
14.232000000000001,0.22811086517527518
14.236,0.1773122565952076
14.24,0.35413992327292554
14.244,0.2065265274206772
14.248000000000001,0.7674344197727403
14.252,0.20813765238388476
14.256,0.49370020340363746
14.26,0.6135354415810307
14.264000000000001,0.7276352799155765
14.268,0.5226212679736881
14.272,0.43774321152352946
14.276,0.8995000669193245
14.280000000000001,0.6569678347839767
14.284,0.8868134034819171
14.288,0.6327414742931782
14.292,0.5358140619106271
14.296000000000001,0.39748749791818744
14.3,0.9693906148245612
14.304,0.5202032691126649
14.308,0.7993095639770182
14.312000000000001,0.8975252908561884
14.316,0.7963907955314943
14.32,0.448120343478883
14.324,1.029098909740713
14.328000000000001,0.8111209059521622
14.332,0.6797689183791589
14.336,0.8046042582850446
14.34,0.8256079584283501
14.344,1.0842204908010207
14.348,0.5325858159525144
14.352,0.38720794512436624
14.356,1.0057776292212917
14.36,0.5746509008638089
14.364,0.6279486517981303
14.368,1.0784226234180232
14.372,0.7317949595449578
14.376,0.9395067333607406
14.38,0.6751632957153637
14.384,0.8631783589404782
14.388,0.8841951675551917
14.392,1.0942413182480142
14.396,0.501572982735678
14.4,0.91829469629835
14.404,0.5942140314705779
14.408,0.6693815842594038
14.412,0.818934370434215
14.416,0.7342261018141094
14.42,0.6654030108610158
14.424,0.8862465816529771
14.428,0.9604764518245881
14.432,0.9296080435330399
14.436,0.7330690614904267
14.44,0.5196194099893
14.444,0.8590858113383824
14.448,0.7797061836924166
14.452,0.9137778251155748
14.456,0.4315938242435592
14.46,0.8739243921946229
14.464,0.9230043541832968
14.468,0.47458251865844503
14.472,0.8206590578782094
14.476,0.4660554243317994
14.48,0.5314876983964663
14.484,0.3954240021209797
14.488,0.9551531219860852
14.492,0.7514721909269967
14.496,0.5034294330887599
14.5,0.38739597327876996
14.504,0.48935658481386624
14.508000000000001,0.5146988138547035
14.512,0.4126877849996812
14.516,0.3174851914106213
14.52,0.07819029273168948
14.524000000000001,0.609712068812384
14.528,0.8183907582280129
14.532,-0.040850122208641426
14.536,0.3437202323582839
14.540000000000001,0.1995141989376085
14.544,-0.012872309605764076
14.548,0.40595086565509825
14.552,0.4307131928313379
14.556000000000001,0.32550153075630894
14.56,0.20530095929195918
14.564,0.33178164715597513
14.568,-0.01700639612486969
14.572000000000001,0.11868650612951251
14.576,0.18455007231268938
14.58,0.07272884089971282
14.584,-0.238280158962974
14.588000000000001,-0.11522331157788443
14.592,0.010796354032767422
14.596,0.03624677281339912
14.6,-0.07845883624372915
14.604000000000001,-0.3451481792260875
14.608,0.25084654832320075
14.612,-0.12015591655051844
14.616,0.04926439460613094
14.620000000000001,-0.33931379245597826
14.624,-0.2080845577302409
14.628,-0.09443088521264326
14.632,-0.4220847371860989
14.636000000000001,-0.5309744540142286
14.64,-0.3358724517248235
14.644,-0.33591009384476067
14.648,-0.5517861024337798
14.652000000000001,-0.5730084218329621
14.656,-0.4032530242455565
14.66,-0.019743284727064325
14.664,-0.15079187479903683
14.668000000000001,-0.6449223994998969
14.672,-0.6108148439297002
14.676,-0.33281799210258156
14.68,-0.2775561848409566
14.684000000000001,-0.2389649645507998
14.688,-1.0775895518761374
14.692,-0.31812734178510227
14.696,-0.7896745608617888
14.700000000000001,-0.35536701025259815
14.704,-0.568538802221848
14.708,-0.5969080229835121
14.712,-0.6413638312537621
14.716000000000001,-0.7293572053873622
14.72,-0.1320319198062072
14.724,-0.36036489409360856
14.728,-0.9105377189533903
14.732000000000001,-0.7229127783971349
14.736,-0.7450163977595408
14.74,-0.8719178822100724
14.744,-0.5393512203435891
14.748000000000001,-0.7237461441928017
14.752,-0.8779721230225569
14.756,-0.6658561911496326
14.76,-0.8393199878198092
14.764000000000001,-0.5414902758324596
14.768,-0.865816406675403
14.772,-0.6844592394499835
14.776,-0.8969617073559181
14.780000000000001,-1.0646594193590457
14.784,-0.6586217811282821
14.788,-1.0304790525703025
14.792,-0.7368125410649661
14.796000000000001,-0.5190176189633153
14.8,-1.0415715107798986
14.804,-0.9161922779461316
14.808,-1.0421154637447207
14.812000000000001,-0.8225566071085437
14.816,-0.5492534130750881
14.82,-0.8648380301344352
14.824,-0.911271926194522
14.828000000000001,-0.8385589871901117
14.832,-0.8330641406331121
14.836,-1.0987646357378416
14.84,-0.5696601566892278
14.844000000000001,-0.7171759717292957
14.848,-0.5214229452460883
14.852,-0.726264734202417
14.856,-0.9157822929456902
14.86,-0.5676243167448869
14.864,-0.6507846935407234
14.868,-0.5452148952973513
14.872,-0.8583327042242844
14.876,-0.7444711271702993
14.88,-0.6616816335114181
14.884,-0.5993325754022006
14.888,-0.3169520529361535
14.892,-0.956946806543729
14.896,-0.6631842485702288
14.9,-0.7631093442403272
14.904,-0.49359247982714727
14.908,-0.45163709218137427
14.912,-0.7551229941460404
14.916,-0.23245819171400547
14.92,-0.43876382849492795
14.924,-0.5881364570028392
14.928,-0.518077208677124
14.932,-0.16595977762901487
14.936,0.0889638139080543
14.94,-0.7610518137315327
14.944,-0.3833986056719221
14.948,-0.25236121183258065
14.952,-0.2699814123434586
14.956,-0.5584163757282711
14.96,-0.045815204606454885
14.964,-0.4317499238630736
14.968,-0.39614672168515763
14.972,-0.4972579166621458
14.976,0.028540515024500474
14.98,-0.319673442934017
14.984,-0.2411059169178607
14.988,-0.23368603635221646
14.992,0.11851064963640448
14.996,-0.14354441255642064
15.0,-0.3003289697820834
15.004,0.1796957830255913
15.008000000000001,-0.13272608835521535
15.012,0.2687882840854209
15.016,0.23036398841232972
15.02,-0.05311034775307971
15.024000000000001,0.5737647819688302
15.028,-0.06132213779375892
15.032,0.15720533267894443
15.036,0.15813647283692592
15.040000000000001,0.01916675472079632
15.044,0.3648426836066524
15.048,0.1516846784685846
15.052,0.26363646639516913
15.056000000000001,0.5333706295749198
15.06,0.0851747741088677
15.064,0.3228356973803614
15.068,0.246924629184133
15.072000000000001,0.2937771495566837
15.076,0.590030590265403
15.08,0.4998330020932966
15.084,0.4948839558473577
15.088000000000001,0.16136325085864645
15.092,0.7048335884568868
15.096,0.4265327929329179
15.1,0.536895469363623
15.104000000000001,0.4612671055105925
15.108,0.4122907290663388
15.112,0.532074432438952
15.116,0.8867290340836242
15.120000000000001,0.3020832602885615
15.124,0.9484377202527597
15.128,0.8614882678580333
15.132,0.47267019416508427
15.136000000000001,0.5912014780949507
15.14,0.8049789951644832
15.144,0.346866825286242
15.148,0.7647253810559232
15.152000000000001,0.7612206451667339
15.156,0.7844823453856716
15.16,1.0010865981193529
15.164,0.6678595739832335
15.168000000000001,0.7912135810196174
15.172,1.0757930225737347
15.176,1.0734853158457855
15.18,0.8610289318419228
15.184000000000001,0.7480200340457607
15.188,1.0175634031583836
15.192,0.9592171927138529
15.196,0.9358907690202445
15.200000000000001,0.5373712752487201
15.204,0.6790802405014631
15.208,0.8021198100031917
15.212,0.720022376523608
15.216000000000001,0.6840237448432889
15.22,1.0255257948646364
15.224,0.7930613608701639
15.228,0.6685725059598464
15.232000000000001,0.6064447516846644
15.236,1.0310685316034252
15.24,0.8511544580386877
15.244,0.8225581650340658
15.248000000000001,1.1376625848745574
15.252,0.6506731759249519
15.256,0.784835417112143
15.26,0.9106703443041895
15.264000000000001,0.9423249217042569
15.268,0.954755593335781
15.272,0.7172066811029841
15.276,0.6875837523304906
15.280000000000001,0.39709512492189103
15.284,0.7214444415177368
15.288,0.6880322877182906
15.292,0.45940740662800944
15.296000000000001,0.7497438576795437
15.3,1.1834134595850399
15.304,0.4992253940789276
15.308,0.5147180573156673
15.312000000000001,0.6843917847167107
15.316,0.3296174925737503
15.32,0.3329064382480055
15.324,0.2889631291343906
15.328000000000001,0.6435736893802668
15.332,0.22993332643915582
15.336,0.5227131010730834
15.34,0.3828150930016705
15.344000000000001,0.583577278825085
15.348,0.10134511748249414
15.352,0.4564225354336783
15.356,0.2450190245349137
15.36,0.13178962159083774
15.364,0.028456964473317525
15.368,0.3718352885441409
15.372,0.29360523733079563
15.376,0.4661165492957416
15.38,0.37995702565025175
15.384,-0.02648872590791182
15.388,0.524055636999781
15.392,0.6841433416241258
15.396,-0.2679078131888083
15.4,0.31770936518446413
15.404,-0.22610755894269302
15.408,0.19544609428653323
15.412,-0.14201033044535888
15.416,-0.0933755225521478
15.42,-0.07665037134111075
15.424,0.002384713792807691
15.428,-0.14684927317571428
15.432,-0.24753610933789175
15.436,-0.07951154178426167
15.44,-0.15473535708045283
15.444,-0.17903256082143357
15.448,0.0668002651076482
15.452,-0.28936057415898997
15.456,0.1655555508646846
15.46,-0.7413390240193982
15.464,-0.4425150813869385
15.468,-0.40336744881094067
15.472,-0.44986336047976205
15.476,-0.4035598043464566
15.48,-0.12820763437626584
15.484,-0.6302290124945017
15.488,-0.6438683744503443
15.492,-0.8132789608256632
15.496,-0.8429161009568826
15.5,-0.5803897580026554
15.504,-0.44218045492391356
15.508000000000001,-0.5401650202107919
15.512,-0.5514296662856991
15.516,-0.788443555083133
15.52,-0.3381017436563335
15.524000000000001,-0.1507417249818307
15.528,-0.6675611164661156
15.532,-0.3874117345458783
15.536,-0.4510807783379793
15.540000000000001,-0.39251918410151043
15.544,-0.5875878878218548
15.548,-0.7583086062506791
15.552,-0.9116467715792195
15.556000000000001,-0.789884623488306
15.56,-0.9269467628636829
15.564,-0.8515601119678886
15.568,-0.6327851288911138
15.572000000000001,-0.5868933912884663
15.576,-0.6807678683772895
15.58,-0.45118763203328927
15.584,-0.6586202209633677
15.588000000000001,-0.8526333428385694
15.592,-0.6954769897444846
15.596,-0.701757708313693
15.6,-0.5393146127078499
15.604000000000001,-1.0554262892624742
15.608,-1.1359826601609662
15.612,-0.7674792223414496
15.616,-1.211054959491214
15.620000000000001,-1.1844997647272293
15.624,-0.7313330095981323
15.628,-0.5666674268634314
15.632,-0.5185555613374905
15.636000000000001,-1.095261353144727
15.64,-0.3315357941547271
15.644,-1.001343316075
15.648,-0.8733543705972484
15.652000000000001,-0.9587219836246871
15.656,-0.8953221762302173
15.66,-0.6222354207210118
15.664,-1.3402823087854328
15.668000000000001,-0.7248171459306427
15.672,-0.7526199606287434
15.676,-0.6278715050061453
15.68,-0.771182684843388
15.684000000000001,-0.5689545875598171
15.688,-0.5314421242424265
15.692,-0.8410114562248321
15.696,-0.9206468051436794
15.700000000000001,-0.8153699473385173
15.704,-0.5908825913970459
15.708,-0.5832641380621241
15.712,-0.6364417566082198
15.716000000000001,-0.5108280339229695
15.72,-0.6500907414851302
15.724,-0.6399923262162737
15.728,-0.6031381092294448
15.732000000000001,-0.25540790537573627
15.736,-0.5978230516305099
15.74,-0.46462707995685604
15.744,-0.6038911485999252
15.748000000000001,-0.8055668162659053
15.752,-0.5474534226598503
15.756,-0.4205925699109324
15.76,-0.5569049217418846
15.764000000000001,-0.35860152772942955
15.768,-0.6562338016380869
15.772,-0.7434298597941315
15.776,-0.4347661730818353
15.780000000000001,-0.18539056875208085
15.784,-0.2927877504493876
15.788,-0.1807674977536044
15.792,-0.358244119989813
15.796000000000001,-0.264177383353192
15.8,-0.2468710225365277
15.804,-0.08775387788423623
15.808,-0.22304415010329215
15.812000000000001,0.08533965124392373
15.816,-0.1491480463303794
15.82,0.13946041029731596
15.824,-0.3449848503433167
15.828000000000001,-0.18353985984871518
15.832,0.15555145957276237
15.836,-0.3254495432132462
15.84,-0.3201086851542866
15.844000000000001,0.03317027996474077
15.848,0.05787932305229512
15.852,-0.06082519583838547
15.856,0.022681296174070248
15.860000000000001,0.2374009215328383
15.864,0.1829976762538842
15.868,0.08359634666411019
15.872,0.3625989167123205
15.876,0.704346716997696
15.88,0.44136744494208846
15.884,0.6891139800713447
15.888,0.4561871461360252
15.892,0.5933487776950888
15.896,0.595073182901639
15.9,-0.0021100895490615557
15.904,0.6233830802526781
15.908,0.3829079118177197
15.912,0.7670253626105641
15.916,0.675065772737432
15.92,0.4956360662054166
15.924,0.49265739926776564
15.928,0.5754099266876389
15.932,0.7101302345930421
15.936,0.4344586497200684
15.94,0.7629092023886295
15.944,0.7811256617226761
15.948,0.5440834096127974
15.952,0.7222499388874082
15.956,0.5000479013410332
15.96,0.8396868705733163
15.964,1.2844044226945934
15.968,0.880452532958963
15.972,1.0953102695216799
15.976,0.8067480846157675
15.98,0.8143460363043926
15.984,0.5868079890836266
15.988,0.6111362807627647
15.992,0.7927116702682565
15.996,0.7290446420868991
16.0,0.4441973407733237
16.004,0.7887354691420434
16.008,0.6824858134106866
16.012,0.6803959468528089
16.016000000000002,1.0311886641013697
16.02,0.5234065946989521
16.024,0.880614930862982
16.028,0.3377269280540072
16.032,0.7326965033782953
16.036,1.1436824983416392
16.04,0.8237951031162913
16.044,0.9224140245094704
16.048000000000002,0.8200376499565902
16.052,0.47682904613844695
16.056,0.985950397924198
16.06,0.6200908116412025
16.064,0.7186392785926334
16.068,0.439276627286645
16.072,0.8193344905196478
16.076,0.7845794887504794
16.080000000000002,0.7964690519689994
16.084,1.0118773007813606
16.088,0.471474523459803
16.092,0.57407234071436
16.096,0.919164902129921
16.1,0.5286895957376677
16.104,1.1161710410542616
16.108,0.8797102987944583
16.112000000000002,0.8006013455125007
16.116,0.7663231759567911
16.12,0.48873141886369753
16.124,0.8132414268799193
16.128,0.6115557677182026
16.132,0.4195156139384487
16.136,0.7517432966610165
16.14,0.6114561274501424
16.144000000000002,0.3096255628973084
16.148,0.9438683462929794
16.152,0.7373520574647594
16.156,0.5393432434454958
16.16,0.14107407485221585
16.164,0.2569043723856279
16.168,-0.040458489487540716
16.172,0.43566470294631116
16.176000000000002,0.23887896388761745
16.18,0.2806283094682538
16.184,0.4362926091205641
16.188,0.4018079144083712
16.192,0.6068731171636073
16.196,0.3060710220832663
16.2,0.25277784320932284
16.204,0.45188653954904945
16.208000000000002,0.25632380702113544
16.212,0.2587815086509616
16.216,0.31773428569198436
16.22,0.29444470319957605
16.224,0.21405332336488403
16.228,0.34242382379589364
16.232,0.17662260314262887
16.236,-0.14824761891629662
16.240000000000002,0.021730937507954705
16.244,-0.36574449770480605
16.248,0.0008542343921208347
16.252,0.005113127539308308
16.256,-0.013727613248153268
16.26,-0.009820714578386493
16.264,0.04060485347939993
16.268,-0.044976310772123496
16.272000000000002,0.10477400072285664
16.276,-0.2649301231400425
16.28,-0.12619170831581444
16.284,-0.1826252573695643
16.288,-0.25353990323723236
16.292,-0.3959199911716387
16.296,-0.23649986371117435
16.3,-0.38810868955557676
16.304000000000002,-0.5648015804101909
16.308,-0.4010036215779448
16.312,-0.5632688955418591
16.316,-0.21392235679392185
16.32,-0.30185912162134954
16.324,-0.681337327343714
16.328,-0.2853701502507626
16.332,-0.4026778411499145
16.336000000000002,-0.3457237542424446
16.34,-0.43803141197059353
16.344,-0.6166602376506348
16.348,-0.5733133904136041
16.352,-0.576526700433054
16.356,-0.6049313158224597
16.36,-0.5112388944219015
16.364,-0.5446996676059591
16.368000000000002,-0.5582485422670809
16.372,-0.6914101772537055
16.376,-0.45178322057442055
16.38,-0.48630112322878893
16.384,-0.5789388816401253
16.388,-0.8484804501843909
16.392,-0.33307454257001645
16.396,-0.8582070905750198
16.4,-0.9852807007706067
16.404,-0.7244367546990482
16.408,-0.25922830735469643
16.412,-0.3674904528731012
16.416,-1.0327672840750692
16.42,-0.7642324252010366
16.424,-0.7833691113155571
16.428,-0.8087984485269293
16.432,-0.7953381471491168
16.436,-0.6220982530100944
16.44,-0.5864700677138799
16.444,-0.9095595939947676
16.448,-1.123702102498946
16.452,-0.9294482163823969
16.456,-0.7148344252258305
16.46,-0.790932106898804
16.464,-0.7399653794452103
16.468,-1.068522699162875
16.472,-0.6775714606526474
16.476,-0.532172652966426
16.48,-0.7620000813797912
16.484,-0.7987632456592151
16.488,-0.6513578760680507
16.492,-1.0238597545318433
16.496,-0.645876383114868
16.5,-0.7611173706456923
16.504,-0.9330074957325486
16.508,-0.3051482205577391
16.512,-0.880807782838293
16.516000000000002,-0.8549082643849422
16.52,-0.1593703500972684
16.524,-0.527513994537331
16.528,-0.6467062829688683
16.532,-0.6445618540867711
16.536,-0.4650177621379087
16.54,-0.8389496015304014
16.544,-0.39259572908048296
16.548000000000002,-0.782691485220609
16.552,-0.6600020488749372
16.556,-0.8425535830668385
16.56,-0.7008500815535882
16.564,-0.5229483539623713
16.568,-0.2674802430421154
16.572,-0.7960332668493624
16.576,-0.4764064373553741
16.580000000000002,-0.7196561512707499
16.584,-0.2694831210372679
16.588,-0.5985939726328805
16.592,-0.41220298065325955
16.596,-0.2473868181161982
16.6,0.0822657369124799
16.604,-0.5834438888637701
16.608,-0.3422300680694743
16.612000000000002,-0.19192384435530163
16.616,-0.2403039330509278
16.62,-0.21284747569824974
16.624,-0.10504337356502796
16.628,-0.427225706093512
16.632,-0.6219424637898172
16.636,-0.27185225813902175
16.64,-0.3957040691502657
16.644000000000002,-0.3555910702370767
16.648,-0.19201118379388943
16.652,-0.002599389317027509
16.656,-0.1235243385600623
16.66,-0.0036879149696205163
16.664,0.2872683241889046
16.668,-0.19921609327990664
16.672,-0.20792600329224975
16.676000000000002,0.10025977818984623
16.68,0.25721798757012304
16.684,0.1336019235136909
16.688,-0.09975822620530042
16.692,-0.08298969161861597
16.696,-0.022018153420149456
16.7,-0.1938556290372484
16.704,-0.14509867826437725
16.708000000000002,0.23050239907454062
16.712,0.30174084849258054
16.716,0.31039211061939054
16.72,0.17878641703917134
16.724,-0.019712179837379495
16.728,0.6813888307352316
16.732,0.08741982469397913
16.736,0.2554304567736805
16.740000000000002,0.6078196111477241
16.744,0.80009771041579
16.748,0.23817005025433674
16.752,0.7081505897232312
16.756,0.45322518101997494
16.76,0.8288951350760319
16.764,0.6374460341500343
16.768,0.5334141388288091
16.772000000000002,0.38083303857388273
16.776,0.3143576634144965
16.78,0.3263296774371162
16.784,0.7825410755490139
16.788,0.4557039897030897
16.792,0.8738247428699533
16.796,0.4619054628480129
16.8,0.5046184627950867
16.804000000000002,0.6451645915602154
16.808,0.6910818042735883
16.812,0.6198618483664522
16.816,0.6844972011769028
16.82,0.6792209313424865
16.824,0.6158188566594479
16.828,1.0449808612417788
16.832,0.9302548346699802
16.836000000000002,1.1607762966794593
16.84,1.0384695000658866
16.844,0.6651868753665795
16.848,1.0324701381790742
16.852,0.7729949306897042
16.856,1.1362796425400723
16.86,0.7094886079142568
16.864,0.601268172815003
16.868000000000002,0.4887304744358631
16.872,0.7481165002744438
16.876,0.9932332083396455
16.88,0.7273718824331634
16.884,1.0415559712885962
16.888,0.7671250781945869
16.892,0.9353831079067608
16.896,0.5468797437469093
16.9,0.6931095918083907
16.904,0.7391612014932188
16.908,0.7109714283762922
16.912,0.6370966715930988
16.916,0.4556019842026118
16.92,0.6015611788226524
16.924,0.9199039886235496
16.928,0.40553841212092934
16.932,0.6606136273790428
16.936,0.7202436505200417
16.94,0.7935037050165216
16.944,0.8731859075522883
16.948,0.4965313733138841
16.952,0.5551071427884584
16.956,0.5670046082398754
16.96,0.5829776791837029
16.964,0.8859368354828487
16.968,0.5267163252865685
16.972,0.6365460962489167
16.976,0.17083922227488063
16.98,0.48588395255272965
16.984,0.47129241782160197
16.988,0.3788463129422751
16.992,0.3482548971450734
16.996,0.8774899731893365
17.0,0.5079073103809426
17.004,0.04274211928956334
17.008,0.5021852951925728
17.012,0.07851185096747126
17.016000000000002,0.47940424305029783
17.02,0.647559478785438
17.024,0.5711130798583308
17.028,0.5054056260272662
17.032,0.41411522993013367
17.036,0.35383713538987205
17.04,0.4650601063330062
17.044,0.33273139123809614
17.048000000000002,0.3657228886742116
17.052,0.3323485851320037
17.056,0.6538763357770045
17.06,-0.2570639967678951
17.064,0.25082860343463165
17.068,0.2582841775649046
17.072,-0.05585638706334249
17.076,-0.022520561445821687
17.080000000000002,-0.11232724169887565
17.084,0.006015789658023525
17.088,-0.2829585554389189
17.092,-0.08263418930363212
17.096,-0.3803058946160871
17.1,0.04478145333505547
17.104,-0.3827315040225497
17.108,0.0684515184825264
17.112000000000002,0.1291629958646936
17.116,-0.2676182670229559
17.12,-0.5001126487034316
17.124,-0.18844298085167993
17.128,-0.2853241694761331
17.132,-0.4737231327497472
17.136,-0.3542648130576408
17.14,-0.5101060239201258
17.144000000000002,-0.15971945332847262
17.148,-0.44861204692171874
17.152,-0.21346124907430275
17.156,-0.8657690853560357
17.16,-0.5636802351228882
17.164,-0.3365926650682598
17.168,-0.5765158319017423
17.172,-0.5650235951298905
17.176000000000002,-0.62296057429944
17.18,-0.37770069302573844
17.184,-0.804385057529384
17.188,-0.6044739427405652
17.192,-0.5832889935366217
17.196,-0.301454138853635
17.2,-1.1016874816263766
17.204,-0.9233279244938437
17.208000000000002,-0.4024513676899524
17.212,-0.67954708963941
17.216,-0.39328109709680004
17.22,-0.6840582440242841
17.224,-0.8835730059557055
17.228,-0.33753358580701537
17.232,-0.8147660920691517
17.236,-0.9742866278120839
17.240000000000002,-0.7273468215569205
17.244,-0.9553743673364181
17.248,-0.8374695437939014
17.252,-1.047195210159381
17.256,-0.5949309962565339
17.26,-0.5799994370389181
17.264,-0.6980189596518176
17.268,-0.7958349310347159
17.272000000000002,-1.1121765553722858
17.276,-0.790624236817559
17.28,-0.7717776471321328
17.284,-0.5389315068824332
17.288,-0.9391981048789075
17.292,-0.6752547907315112
17.296,-0.7528775708932279
17.3,-0.7040489467681413
17.304000000000002,-0.7505471592591888
17.308,-0.7570108049360381
17.312,-0.7177676600218259
17.316,-0.8332295689353342
17.32,-0.7281504338979043
17.324,-0.7052484998291579
17.328,-0.7214297139098294
17.332,-0.8178119966938412
17.336000000000002,-0.516249092841181
17.34,-0.401894260390736
17.344,-0.6443129600971358
17.348,-0.3516650307701523
17.352,-0.7784528456140893
