time,signal
0.0,1.0946919357548701
0.004001600640256103,1.161471266905359
0.008003201280512205,0.7647144364886795
0.012004801920768308,0.4714839620529887
0.01600640256102441,0.16820079997194862
0.020008003201280513,0.06155147334991332
0.024009603841536616,-0.05495362796588514
0.028011204481792718,-0.10953981438994809
0.03201280512204882,-0.1670745317920874
0.03601440576230493,-0.18249340743149298
0.040016006402561026,-0.19651937635675035
0.044017607042817125,-0.3163359145252718
0.04801920768307323,-0.31771261835943043
0.05202080832332934,-0.2756462025315382
0.056022408963585436,-0.18949751607369653
0.060024009603841535,-0.23306166415073745
0.06402561024409764,-0.22953129905117753
0.06802721088435375,-0.11253125655696249
0.07202881152460985,-0.0052661042876193664
0.07603041216486595,-0.14077636448907196
0.08003201280512205,-0.0664126927143111
0.08403361344537816,0.01631297159097341
0.08803521408563425,0.022699726769148637
0.09203681472589036,-0.033721262454038746
0.09603841536614646,0.018244353434276002
0.10004001600640257,0.04595731045674645
0.10404161664665867,0.0884080348733309
0.10804321728691477,0.07849517340885748
0.11204481792717087,0.02290841251386063
0.11604641856742698,0.13606383348038592
0.12004801920768307,0.1516910563444821
0.12404961984793918,0.1214423058024356
0.12805122048819528,0.04936261709422848
0.13205282112845138,0.10521596068094577
0.1360544217687075,0.19080760714381573
0.1400560224089636,0.1574195851153524
0.1440576230492197,0.15932736834792494
0.1480592236894758,0.2167088029497114
0.1520608243297319,0.3196555289956796
0.156062424969988,0.3076255282847794
0.1600640256102441,0.25792775207542445
0.1640656262505002,0.2413409191973283
0.16806722689075632,0.38476813860096765
0.1720688275310124,0.39798777197371527
0.1760704281712685,0.353673201978529
0.18007202881152462,0.414085027153661
0.1840736294517807,0.37415748319065595
0.18807523009203683,0.3827677112303882
0.19207683073229292,0.2953292848018715
0.19607843137254902,0.3778349465333534
0.20008003201280514,0.41123663930899274
0.20408163265306123,0.41761833970257156
0.20808323329331735,0.44385227274882083
0.21208483393357344,0.3045783470214666
0.21608643457382953,0.36709360423331183
0.22008803521408565,0.4543538178470375
0.22408963585434175,0.3159392937678535
0.22809123649459784,0.2680133077471924
0.23209283713485396,0.30651082686714665
0.23609443777511005,0.41836651046156137
0.24009603841536614,0.22683200070500426
0.24409763905562226,0.2939781447651161
0.24809923969587835,0.33507989121914333
0.25210084033613445,0.3814197998482269
0.25610244097639057,0.409292893122696
0.2601040416166467,0.16371498091648135
0.26410564225690275,0.25401835898986014
0.26810724289715887,0.18211315835658454
0.272108843537415,0.3365704405390423
0.27611044417767105,0.12153389365432624
0.2801120448179272,0.1322215941675318
0.2841136454581833,0.19785235698574388
0.2881152460984394,0.23352122771179623
0.2921168467386955,0.11047053463212622
0.2961184473789516,0.16156337167240697
0.3001200480192077,0.13861241741988067
0.3041216486594638,0.3073502331576123
0.3081232492997199,0.12430698056014171
0.312124849939976,0.18875124332384355
0.3161264505802321,0.2204575718625876
0.3201280512204882,0.2756018742954261
0.32412965186074433,0.21563943380175482
0.3281312525010004,0.1805053319075483
0.3321328531412565,0.21925792670139177
0.33613445378151263,0.20944760219011765
0.3401360544217687,0.07117268685289715
0.3441376550620248,0.13052025130998632
0.34813925570228094,0.13978375722473058
0.352140856342537,0.18163562691839097
0.3561424569827931,0.2500127713087811
0.36014405762304924,0.1793633543791512
0.36414565826330536,0.049093606868700054
0.3681472589035614,0.2244343168043902
0.37214885954381755,0.1625893480238971
0.37615046018407367,0.14031445792350197
0.38015206082432973,0.07034019443766892
0.38415366146458585,0.22144846941988106
0.38815526210484197,0.20922749725968776
0.39215686274509803,0.2857598692943148
0.39615846338535415,0.057161282317208344
0.4001600640256103,0.23242635220187563
0.40416166466586634,0.2573102711570357
0.40816326530612246,0.2921036752554632
0.4121648659463786,0.1171340414409465
0.4161664665866347,0.24929277233136168
0.42016806722689076,0.173423811204586
0.4241696678671469,0.07904630483685524
0.428171268507403,0.09587862379637449
0.43217286914765907,0.2679299825164708
0.4361744697879152,0.24454905592133813
0.4401760704281713,0.21931141441570717
0.44417767106842737,0.08962945857736616
0.4481792717086835,0.1054966924946704
0.4521808723489396,0.15932267368699904
0.4561824729891957,0.24019114750776704
0.4601840736294518,0.2157160653154092
0.4641856742697079,0.14190708342950506
0.468187274909964,0.27565513627188665
0.4721888755502201,0.3810127398587586
0.4761904761904762,0.2220839886970181
0.4801920768307323,0.22239363630320258
0.4841936774709884,0.20364192251565236
0.4881952781112445,0.32319257796871526
0.49219687875150064,0.2637274984621914
0.4961984793917567,0.3215106640690413
0.5002000800320128,0.184023619366019
0.5042016806722689,0.28077077513428944
0.508203281312525,0.2651225239840196
0.5122048819527811,0.2050761200380895
0.5162064825930373,0.14403289688066567
0.5202080832332934,0.289827773592314
0.5242096838735495,0.2924934695543316
0.5282112845138055,0.22993611697780034
0.5322128851540616,0.2675594668367167
0.5362144857943177,0.2263472437772743
0.5402160864345739,0.29961500063881125
0.54421768707483,0.1415723177056034
0.5482192877150861,0.29172152107203864
0.5522208883553421,0.3077573130578737
0.5562224889955982,0.2377563250288835
0.5602240896358543,0.20563735683668577
0.5642256902761105,0.12799693502744466
0.5682272909163666,0.16572245559774323
0.5722288915566227,0.2596166915320369
0.5762304921968788,0.26861985922814374
0.5802320928371348,0.2458904681014156
0.584233693477391,0.27917516606577986
0.5882352941176471,0.27273352271762763
0.5922368947579032,0.247753885912558
0.5962384953981593,0.3112426618452716
0.6002400960384154,0.27971320932763627
0.6042416966786714,0.33829928223607647
0.6082432973189276,0.29690660681241327
0.6122448979591837,0.1774350732289331
0.6162464985994398,0.3551767821374258
0.6202480992396959,0.36308284810611524
0.624249699879952,0.33971852848073614
0.6282513005202081,0.24835849536583812
0.6322529011604642,0.21266203698182007
0.6362545018007203,0.2837186313737641
0.6402561024409764,0.23742134434188292
0.6442577030812325,0.21248815032818213
0.6482593037214887,0.250875424357483
0.6522609043617448,0.3533301524049675
0.6562625050020008,0.4194796195490509
0.6602641056422569,0.1642896543369943
0.664265706282513,0.2800137068488746
0.6682673069227691,0.33639146213433657
0.6722689075630253,0.3407037210390156
0.6762705082032814,0.29139501741371465
0.6802721088435374,0.25732344948346264
0.6842737094837935,0.2690256848186379
0.6882753101240496,0.4003254463544218
0.6922769107643058,0.22621991879852876
0.6962785114045619,0.24165208204893507
0.700280112044818,0.2510125369843002
0.704281712685074,0.432688189220119
0.7082833133253301,0.28736947326902396
0.7122849139655862,0.28662391305098006
0.7162865146058424,0.29276296540818514
0.7202881152460985,0.38209626610264635
0.7242897158863546,0.4173690815964753
0.7282913165266107,0.22598629831785702
0.7322929171668667,0.27473851877691896
0.7362945178071229,0.32904818835271
0.740296118447379,0.2511248445210017
0.7442977190876351,0.21595996838444909
0.7482993197278912,0.25309154733100925
0.7523009203681473,0.33133819328486486
0.7563025210084033,0.3427986200295767
0.7603041216486595,0.3308496160912367
0.7643057222889156,0.1829782594988558
0.7683073229291717,0.4296162083792361
0.7723089235694278,0.4174399400729538
0.7763105242096839,0.3029649938208009
0.7803121248499401,0.2476562739556423
0.7843137254901961,0.29727767406488786
0.7883153261304522,0.3902403412948148
0.7923169267707083,0.30028761662102676
0.7963185274109644,0.34795774940566015
0.8003201280512205,0.37488001869027604
0.8043217286914767,0.5505727983136545
0.8083233293317327,0.478572942421599
0.8123249299719888,0.41660022133563834
0.8163265306122449,0.5884930173214901
0.820328131252501,0.9215364780990971
0.8243297318927572,1.2098256319812173
0.8283313325330133,1.3749543341481398
0.8323329331732694,1.4706797986152438
0.8363345338135254,1.4245500914286844
0.8403361344537815,1.1431805795146883
0.8443377350940376,0.7870901519012643
0.8483393357342938,0.5826228810902778
0.8523409363745499,0.4927643159302372
0.856342537014806,0.24931200741576157
0.860344137655062,0.17088113289241874
0.8643457382953181,0.029800667624304916
0.8683473389355743,0.09855553324013433
0.8723489395758304,0.08935530799334546
0.8763505402160865,-0.033109357522968036
0.8803521408563426,-0.03614949882117995
0.8843537414965986,-0.023043829833811452
0.8883553421368547,0.013070192308069703
0.8923569427771109,0.09407808355186846
0.896358543417367,-0.00868836275768782
0.9003601440576231,0.18796913233501078
0.9043617446978792,0.20493511834656894
0.9083633453381353,0.27220727280544493
0.9123649459783914,0.15618138401000514
0.9163665466186475,0.3469096248716818
0.9203681472589036,0.2730082973107816
0.9243697478991597,0.3546757611790107
0.9283713485394158,0.19757431097192635
0.932372949179672,0.248655648726844
0.936374549819928,0.3578142252726787
0.9403761504601841,0.2741299649157438
0.9443777511004402,0.20297710861890705
0.9483793517406963,0.16480134357430448
0.9523809523809524,0.29962545941249213
0.9563825530212086,0.35019777801494617
0.9603841536614646,0.2690082559828502
0.9643857543017207,0.29430672956449455
0.9683873549419768,0.35573795902184907
0.9723889555822329,0.4485837242179505
0.976390556222489,0.3758882245980723
0.9803921568627452,0.35932289427776226
0.9843937575030013,0.454554187793365
0.9883953581432573,0.4700221400718868
0.9923969587835134,0.47076072930560237
0.9963985594237695,0.4546914446502861
1.0004001600640255,0.5356574738670797
1.0044017607042817,0.7251368512716216
1.0084033613445378,0.5025620815774979
1.012404961984794,0.551805614416634
1.01640656262505,0.5210182198633446
1.0204081632653061,0.648660296260536
1.0244097639055623,0.6189407801307933
1.0284113645458184,0.5238853586936562
1.0324129651860745,0.4994522798679576
1.0364145658263306,0.6036955058181244
1.0404161664665867,0.5575258949336565
1.0444177671068429,0.47567547531388843
1.048419367747099,0.554638351580131
1.0524209683873549,0.5398022322774482
1.056422569027611,0.489409545377021
1.0604241696678671,0.4178127707076321
1.0644257703081232,0.471376580360014
1.0684273709483794,0.5235325754293415
1.0724289715886355,0.5711584513744123
1.0764305722288916,0.46560094399554613
1.0804321728691477,0.3371461902540114
1.0844337735094038,0.37297036310018955
1.08843537414966,0.5073158489425315
1.092436974789916,0.3329595940041927
1.0964385754301722,0.3657633746951854
1.1004401760704283,0.3536642531892454
1.1044417767106842,0.3819246049341311
1.1084433773509403,0.37854062138462075
1.1124449779911965,0.2356036101477407
1.1164465786314526,0.17804024499775745
1.1204481792717087,0.32428624282653434
1.1244497799119648,0.2778103281858152
1.128451380552221,0.24417789692129396
1.132452981192477,0.2429540179589545
1.1364545818327332,0.3119543945591509
1.1404561824729893,0.36896393591350257
1.1444577831132454,0.15783975657067328
1.1484593837535015,0.1634049730483358
1.1524609843937577,0.2549721003495823
1.1564625850340136,0.36521869533132195
1.1604641856742697,0.22458673946786376
1.1644657863145258,0.27080314363170255
1.168467386954782,0.2688830438003156
1.172468987595038,0.2569707432623541
1.1764705882352942,0.18727791597141122
1.1804721888755503,0.1008381219571157
1.1844737895158064,0.2588149444319761
1.1884753901560625,0.40581539842980363
1.1924769907963186,0.1808892566321691
1.1964785914365748,0.2662297694192501
1.2004801920768309,0.1870202628122542
1.2044817927170868,0.28703632063972134
1.208483393357343,0.19941988596617521
1.212484993997599,0.19495092586301133
1.2164865946378551,0.2758917279273987
1.2204881952781113,0.23750920474416873
1.2244897959183674,0.21033473100131556
1.2284913965586235,0.18834711815002506
1.2324929971988796,0.15004910314975076
1.2364945978391357,0.18093660375357518
1.2404961984793919,0.21522935550753536
1.244497799119648,0.15384822602924708
1.248499399759904,0.1664033016881258
1.2525010004001602,0.24286358022933802
1.2565026010404161,0.21553870423105354
1.2605042016806722,0.13213150433555057
1.2645058023209284,0.1151435504784969
1.2685074029611845,0.27562934461202226
1.2725090036014406,0.2777788622160862
1.2765106042416967,0.2140031687080475
1.2805122048819528,0.0942169674249396
1.284513805522209,0.22747507774592654
1.288515406162465,0.3075064707653851
1.2925170068027212,0.19790719136964854
1.2965186074429773,0.1193822674648782
1.3005202080832334,0.15476232264901993
1.3045218087234896,0.22167480815636204
1.3085234093637454,0.1296369324094697
1.3125250100040016,0.1917819798866594
1.3165266106442577,0.1360518039508832
1.3205282112845138,0.2878376115565114
1.32452981192477,0.2551891739164656
1.328531412565026,0.10755252296160162
1.3325330132052822,0.058513182646493654
1.3365346138455383,0.2206670304525549
1.3405362144857944,0.2405923965208964
1.3445378151260505,0.10242916591271742
1.3485394157663066,0.1761868268754524
1.3525410164065628,0.1649302176945244
1.3565426170468189,0.1576781626503322
1.3605442176870748,0.1093352711113185
1.364545818327331,0.13665543882043682
1.368547418967587,0.2039630959284904
1.3725490196078431,0.22194750508663924
1.3765506202480993,0.14486776431202433
1.3805522208883554,0.08800367802219242
1.3845538215286115,0.14633963201346747
1.3885554221688676,0.20985995601497387
1.3925570228091237,0.10497172820126846
1.3965586234493799,0.0631497376151793
1.400560224089636,0.16973072648617263
1.404561824729892,0.18666076736590215
1.408563425370148,0.23844722117442385
1.4125650260104041,0.05303986707874784
1.4165666266506602,0.17782662738603958
1.4205682272909164,0.19992740921154778
1.4245698279311725,0.18250137604204655
1.4285714285714286,0.1007279402266583
1.4325730292116847,0.10426269681444242
1.4365746298519408,0.15623881519060925
1.440576230492197,0.17409360003729737
1.444577831132453,0.10668758324061145
1.4485794317727092,0.07190990925983455
1.4525810324129653,0.15967611309830837
1.4565826330532214,0.21219104073244288
1.4605842336934773,0.066258026602151
1.4645858343337335,0.04739334593281356
1.4685874349739896,0.19064039762919016
1.4725890356142457,0.1922958167192437
1.4765906362545018,0.07887592117608479
1.480592236894758,0.08295866288669324
1.484593837535014,0.07061781274018492
1.4885954381752702,0.10850917371921218
1.4925970388155263,0.11067160528980738
1.4965986394557824,0.08167564499160487
1.5006002400960385,0.130886592786913
1.5046018407362947,0.12385711750078307
1.5086034413765508,0.10895067611971948
1.5126050420168067,0.04538855605685488
1.5166066426570628,-0.02313139716123717
1.520608243297319,0.2260842533185865
1.524609843937575,0.07775534933713382
1.5286114445778312,0.03407143410470901
1.5326130452180873,0.02529269164003734
1.5366146458583434,0.1636837823085417
1.5406162464985995,0.15998288582441006
1.5446178471388556,-0.05411872150158194
1.5486194477791118,0.06174084110783704
1.5526210484193679,0.09655535840531286
1.556622649059624,0.05472867870629371
1.5606242496998801,0.0388393551678253
1.564625850340136,0.010729967154055851
1.5686274509803921,0.10333159091164626
1.5726290516206483,0.1852328710033403
1.5766306522609044,0.026108790388779703
1.5806322529011605,-0.09437328340026077
1.5846338535414166,0.07373374869297764
1.5886354541816727,0.10611819943333994
1.5926370548219289,0.060669127835355136
1.596638655462185,-0.01841716785113979
1.600640256102441,0.125433950853361
1.6046418567426972,0.053095259498488784
1.6086434573829533,-0.011715663440581028
1.6126450580232095,-0.059164487184776925
1.6166466586634654,-0.016694605343627506
1.6206482593037215,0.13821427622037535
1.6246498599439776,-0.04273456064382189
1.6286514605842337,0.003964774693391411
1.6326530612244898,0.020394443256715772
1.636654661864746,0.07009565109311819
1.640656262505002,0.014466543564836402
1.6446578631452582,0.05881987028102788
1.6486594637855143,0.23808491377868068
1.6526610644257704,0.6414338850980018
1.6566626650660266,0.9241243350801086
1.6606642657062827,1.114339875253574
1.6646658663465388,1.1580675931916045
1.6686674669867947,1.179262741292427
1.6726690676270508,0.9542344051628453
1.676670668267307,0.49999091533722295
1.680672268907563,0.17737710716344562
1.6846738695478192,-0.012786770907876145
1.6886754701880753,-0.08865704243738917
1.6926770708283314,-0.0868049025679459
1.6966786714685875,-0.20675768595864555
1.7006802721088436,-0.21672356004018184
1.7046818727490998,-0.1555896888865803
1.708683473389356,-0.4048245718346091
1.712685074029612,-0.37979138442950733
1.716686674669868,-0.39009102950147195
1.720688275310124,-0.17511951130300113
1.7246898759503801,-0.268572319678839
1.7286914765906363,-0.3247196525070156
1.7326930772308924,-0.31235812817657105
1.7366946778711485,-0.08449683220965774
1.7406962785114046,-0.13592863590950077
1.7446978791516607,-0.13146494854096258
1.7486994797919169,-0.07597866764155133
1.752701080432173,-0.013935935331527038
1.756702681072429,0.07926238483552614
1.7607042817126852,-0.04638536420832324
1.7647058823529413,-0.16325247573431573
1.7687074829931972,-0.07509658095256228
1.7727090836334534,0.14842574292392458
1.7767106842737095,0.015132418288323412
1.7807122849139656,0.02868328218007765
1.7847138855542217,-0.05668847009972293
1.7887154861944778,0.12210913305295112
1.792717086834734,0.033985403912131625
1.79671868747499,-0.018032174396036237
1.8007202881152462,-0.07133299487112182
1.8047218887555023,0.0213754901328704
1.8087234893957584,0.15569167123520974
1.8127250900360146,0.01364050035140929
1.8167266906762707,0.06636071991608969
1.8207282913165266,0.07505043492973232
1.8247298919567827,0.15045240216258532
1.8287314925970388,0.13772450864741473
1.832733093237295,0.1525827102935733
1.836734693877551,0.1956856830945904
1.8407362945178072,0.19673608395066172
1.8447378951580633,0.12625738743163348
1.8487394957983194,0.18521681703150494
1.8527410964385755,0.2869241582537777
1.8567426970788317,0.24319020499061864
1.8607442977190878,0.18160325881571354
1.864745898359344,0.1689979937125511
1.8687474989996,0.26692606875315344
1.872749099639856,0.2766350798212575
1.876750700280112,0.213819454979778
1.8807523009203682,0.0019564518979938786
1.8847539015606243,0.2555780232849205
1.8887555022008804,0.20223460533522306
1.8927571028411365,0.08001034126572837
1.8967587034813926,0.04043683648315762
1.9007603041216488,0.09251701928667438
1.9047619047619049,0.11693557231905559
1.908763505402161,0.0004643051859667853
1.9127651060424171,-0.03569051075369273
1.9167667066826732,-0.07612521325843215
1.9207683073229291,0.001185351132718504
1.9247699079631853,0.013189393377083726
1.9287715086034414,-0.17696857913187702
1.9327731092436975,-0.07183053762806921
1.9367747098839536,-0.06797832840668297
1.9407763105242097,-0.06089672710541777
1.9447779111644659,-0.14484904891631134
1.948779511804722,-0.18054657334081792
1.952781112444978,-0.11363438196944803
1.9567827130852342,-0.16900159236439444
1.9607843137254903,-0.19892428155190683
1.9647859143657465,-0.17504876930319277
1.9687875150060026,-0.17644437350313782
1.9727891156462585,-0.1146547985721326
1.9767907162865146,-0.08331691943891838
1.9807923169267707,-0.2661875588202204
1.9847939175670268,-0.14960928354772446
1.988795518207283,-0.09459074342667848
1.992797118847539,-0.2081517333327362
1.9967987194877952,-0.2942840468492895
2.000800320128051,-0.24735926625522422
2.0048019207683074,-0.14865701946194415
2.0088035214085633,-0.1223398251155936
2.0128051220488197,-0.24081538888095155
2.0168067226890756,-0.25611111663616815
2.020808323329332,-0.14423963297201536
2.024809923969588,-0.15330930640980592
2.028811524609844,-0.1745388752234907
2.0328131252501,-0.17956361112040947
2.0368147258903564,-0.15784632989869712
2.0408163265306123,-0.12799213335601833
2.0448179271708686,-0.30655759222682283
2.0488195278111245,-0.2306382958693746
2.0528211284513804,-0.17913667057566868
2.0568227290916368,-0.19019048151357426
2.0608243297318927,-0.2490222236062507
2.064825930372149,-0.222663679636026
2.068827531012405,-0.16882662675242566
2.0728291316526612,-0.23435025671478715
2.076830732292917,-0.238512458819055
2.0808323329331735,-0.260846375590133
2.0848339335734294,-0.20081781131768964
2.0888355342136857,-0.16915948017833185
2.0928371348539416,-0.1996175387907768
2.096838735494198,-0.29577853277892563
2.100840336134454,-0.23001262993708113
2.1048419367747098,-0.14782991541859739
2.108843537414966,-0.16873818280329358
2.112845138055222,-0.14603095897958115
2.1168467386954783,-0.214493092007794
2.1208483393357342,-0.19497722935178413
2.1248499399759906,-0.21179874726454134
2.1288515406162465,-0.30186201321620426
2.132853141256503,-0.17915003149349587
2.1368547418967587,-0.19633490378898857
2.140856342537015,-0.20911835830937353
2.144857943177271,-0.35396592118161724
2.1488595438175273,-0.3120400223748679
2.152861144457783,-0.20211305556083248
2.156862745098039,-0.20402719770108624
2.1608643457382954,-0.38719197753894524
2.1648659463785513,-0.3075734655159894
2.1688675470188077,-0.1936032615647442
2.1728691476590636,-0.16706486971870038
2.17687074829932,-0.2433001022653312
2.180872348939576,-0.25170519468542485
2.184873949579832,-0.1481562547673673
2.188875550220088,-0.19852674197644848
2.1928771508603444,-0.17363024637227262
2.1968787515006003,-0.32229687313349487
2.2008803521408566,-0.3096760956634772
2.2048819527811125,-0.19424329722478456
2.2088835534213684,-0.21469212157876214
2.212885154061625,-0.23664807365719742
2.2168867547018807,-0.20989421649056833
2.220888355342137,-0.2234747596495859
2.224889955982393,-0.1881116468927795
2.2288915566226493,-0.29057416284568244
2.232893157262905,-0.2433676750760274
2.2368947579031615,-0.2757004630913445
2.2408963585434174,-0.21606467947232597
2.2448979591836737,-0.38322505439700927
2.2488995598239296,-0.29823176682703606
2.252901160464186,-0.23372369769636775
2.256902761104442,-0.27937819118513746
2.2609043617446978,-0.30437361746997116
2.264905962384954,-0.34495308579927264
2.26890756302521,-0.201092675630631
2.2729091636654664,-0.2331576951874463
2.2769107643057223,-0.30260544132446837
2.2809123649459786,-0.2353387711894906
2.2849139655862345,-0.25851446738152317
2.288915566226491,-0.2708972955022337
2.2929171668667467,-0.34166984596331035
2.296918767507003,-0.26916514308105
2.300920368147259,-0.2045383230269774
2.3049219687875153,-0.2222678279300233
2.308923569427771,-0.30860227024278036
2.312925170068027,-0.3326075278859168
2.3169267707082835,-0.2907456529444737
2.3209283713485394,-0.2705917146836283
2.3249299719887957,-0.33377532544879607
2.3289315726290516,-0.31507576052060404
2.332933173269308,-0.2826445174763052
2.336934773909564,-0.2871621071554579
2.34093637454982,-0.3476296616279741
2.344937975190076,-0.22620752386052034
2.3489395758303324,-0.336880357018311
2.3529411764705883,-0.23233558966095358
2.356942777110844,-0.2972851304583993
2.3609443777511006,-0.4711821012545176
2.3649459783913565,-0.3043032893117188
2.368947579031613,-0.3135136561666115
2.3729491796718687,-0.21365501441842044
2.376950780312125,-0.2851607012464644
2.380952380952381,-0.3007337604798598
2.3849539815926373,-0.22822685308064133
2.388955582232893,-0.21910932079635692
2.3929571828731495,-0.2519854267817008
2.3969587835134054,-0.36661450756940384
2.4009603841536618,-0.35609027803759985
2.4049619847939177,-0.3329827629751481
2.4089635854341735,-0.3369362787650367
2.41296518607443,-0.3022628015200472
2.416966786714686,-0.34303745615665326
2.420968387354942,-0.250583566574769
2.424969987995198,-0.25605294777744414
2.4289715886354544,-0.3487143742962866
2.4329731892757103,-0.23865820735544682
2.4369747899159666,-0.2858173492482145
2.4409763905562225,-0.2559145584398366
2.444977991196479,-0.31871527173382797
2.4489795918367347,-0.3072949785460446
2.452981192476991,-0.24877228784514557
2.456982793117247,-0.26198250816636776
2.460984393757503,-0.28423885811097044
2.4649859943977592,-0.2891355522262611
2.468987595038015,-0.29000787369198483
2.4729891956782715,-0.18891234393049178
2.4769907963185274,-0.13650048483850258
2.4809923969587837,-0.07540902554644188
2.4849939975990396,0.28783163643497844
2.488995598239296,0.6428310496677837
2.492997198879552,0.8053239587477563
2.496998799519808,0.7222359905251983
2.501000400160064,0.8554625903475799
2.5050020008003204,0.5748380012635183
2.5090036014405763,0.24854423909825551
2.5130052020808322,-0.09276178929885755
2.5170068027210886,-0.20746238919276996
2.5210084033613445,-0.33194926072869063
2.525010004001601,-0.3456197367306435
2.5290116046418567,-0.4497780680452585
2.533013205282113,-0.5388516437833862
2.537014805922369,-0.5438885650410183
2.5410164065626253,-0.5042709770187871
2.545018007202881,-0.5779185068288146
2.5490196078431375,-0.6540690465999638
2.5530212084833934,-0.5852846287996155
2.5570228091236498,-0.5139963251301392
2.5610244097639057,-0.5684834671017185
2.5650260104041616,-0.4514202231191558
2.569027611044418,-0.4818954181619387
2.573029211684674,-0.39330041850358566
2.57703081232493,-0.38745324394494685
2.581032412965186,-0.3757508418811918
2.5850340136054424,-0.3292341001724346
2.5890356142456983,-0.2349201219283188
2.5930372148859546,-0.36014026100375257
2.5970388155262105,-0.2945312380212324
2.601040416166467,-0.30754916683078026
2.6050420168067228,-0.24105152850473677
2.609043617446979,-0.20564909375180318
2.613045218087235,-0.2562672109171046
2.617046818727491,-0.23102039257125784
2.6210484193677472,-0.10138834747882364
2.625050020008003,-0.23379834807158636
2.6290516206482595,-0.24920559662065594
2.6330532212885154,-0.25949649181882783
2.6370548219287717,-0.08466599476455336
2.6410564225690276,-0.0867321322731374
2.645058023209284,-0.2505853843903053
2.64905962384954,-0.09632928184691238
2.653061224489796,-0.03327051775213043
2.657062825130052,-0.0887497574549619
2.6610644257703084,-0.07173086452244322
2.6650660264105643,-0.17440167048628938
2.6690676270508202,-0.04220144699398633
2.6730692276910766,-0.037368743925126124
2.6770708283313325,-0.009165132694664471
2.681072428971589,0.04597656392460467
2.6850740296118447,-0.02009835276225287
2.689075630252101,0.02404179657915683
2.693077230892357,-0.10475946784625532
2.6970788315326133,-0.05968969131696801
2.701080432172869,0.0471972501328309
2.7050820328131255,0.017931132531886718
2.7090836334533814,0.02156398223672856
2.7130852340936378,-0.10542145701143611
2.7170868347338937,-0.08670472762206885
2.7210884353741496,0.007096260167378778
2.725090036014406,0.042144564092284564
2.729091636654662,-0.10921007456050288
2.733093237294918,-0.1342469211807539
2.737094837935174,-0.14915787859820162
2.7410964385754304,-0.05641238576467761
2.7450980392156863,-0.22534782708979728
2.7490996398559426,-0.16250760135223694
2.7531012404961985,-0.21906166412051664
2.757102841136455,-0.04935678201230244
2.7611044417767108,-0.24212593397785487
2.765106042416967,-0.22041436260166267
2.769107643057223,-0.05422102547653656
2.773109243697479,-0.18329855518842747
2.7771108443377353,-0.23437668460880076
2.781112444977991,-0.37667245055193566
2.7851140456182475,-0.2280043417768745
2.7891156462585034,-0.20925007245000618
2.7931172468987597,-0.24424574834751053
2.7971188475390156,-0.30392190685836984
2.801120448179272,-0.20040379107583192
2.805122048819528,-0.20270583342604587
2.809123649459784,-0.3048774576901128
2.81312525010004,-0.3237604606930447
2.817126850740296,-0.371320711399633
2.8211284513805523,-0.2245137188437968
2.8251300520208082,-0.17401649647046294
2.8291316526610646,-0.2609593839033148
2.8331332533013205,-0.27783654284165465
2.837134853941577,-0.20620370993849854
2.8411364545818327,-0.1904193151610646
2.845138055222089,-0.33765219033558225
2.849139655862345,-0.24481677138868574
2.8531412565026013,-0.2618710604277127
2.857142857142857,-0.25716723031785577
2.8611444577831135,-0.36041828492386396
2.8651460584233694,-0.240293506089003
2.8691476590636253,-0.14122471676218099
2.8731492597038817,-0.17667864682503467
2.8771508603441376,-0.28119545632951914
2.881152460984394,-0.3024226717438316
2.88515406162465,-0.1905093591854582
2.889155662264906,-0.13068614209328
2.893157262905162,-0.28012506507866203
2.8971588635454184,-0.32943279971718004
2.9011604641856743,-0.1874142331345521
2.9051620648259306,-0.15284365253828985
2.9091636654661865,-0.1532555337597962
2.913165266106443,-0.2529045160928356
2.917166866746699,-0.24768024603516928
2.9211684673869547,-0.19036379017503993
2.925170068027211,-0.1955489066627354
2.929171668667467,-0.2651348435307025
2.9331732693077233,-0.17513105181573643
2.937174869947979,-0.14351173738836415
2.9411764705882355,-0.1954663979912991
2.9451780712284914,-0.30858024000235335
2.9491796718687477,-0.22276418026096362
2.9531812725090036,-0.09835896831457501
2.95718287314926,-0.19888077992877895
2.961184473789516,-0.2134240035930931
2.9651860744297722,-0.26490147733019764
2.969187675070028,-0.132211891231912
2.973189275710284,-0.15796907275741026
2.9771908763505404,-0.20766534832488426
2.9811924769907963,-0.15434498121251422
2.9851940776310526,-0.25348017732628203
2.9891956782713085,-0.08254177715161108
2.993197278911565,-0.24723453792404196
2.9971988795518207,-0.13862929090442866
3.001200480192077,-0.11382022187092637
3.005202080832333,-0.09845790348041128
3.0092036814725893,-0.1979296705099701
3.013205282112845,-0.21336925695459313
3.0172068827531016,-0.15942285825840097
3.0212084833933575,-0.08113024755822446
3.0252100840336134,-0.13260769057722188
3.0292116846738697,-0.20409990488155255
3.0332132853141256,-0.14433195812747593
3.037214885954382,-0.060160695288630876
3.041216486594638,-0.08567698548705471
3.045218087234894,-0.23102668556407122
3.04921968787515,-0.19836203789019177
3.0532212885154064,-0.09393007356712185
3.0572228891556623,-0.16045355137787226
3.0612244897959187,-0.16095533236089613
3.0652260904361746,-0.19034226315031152
3.069227691076431,-0.11527938457765056
3.073229291716687,-0.10407087344934512
3.0772308923569427,-0.19988602398521943
3.081232492997199,-0.13751619393194947
3.085234093637455,-0.025078880167697534
3.0892356942777113,-0.07305720708836594
3.093237294917967,-0.17158049983444335
3.0972388955582235,-0.21314486806068692
3.1012404961984794,-0.09182254826141097
3.1052420968387358,0.0034538033565899295
3.1092436974789917,-0.08244139142778775
3.113245298119248,-0.2481648410737256
3.117246898759504,-0.2030930908059191
3.1212484993997602,-0.020141410941717466
3.125250100040016,-0.12590627471240545
3.129251700680272,-0.20848789656538966
3.1332533013205284,-0.10576545721608642
3.1372549019607843,-0.030111610586274568
3.1412565026010406,-0.013074399311126847
3.1452581032412965,-0.10559030707451597
3.149259703881553,-0.15731802035146703
3.1532613045218087,-0.11309233040089003
3.157262905162065,-0.07016999639656982
3.161264505802321,-0.12140001078843393
3.1652661064425773,-0.07447288087670308
3.1692677070828332,0.04264417338683889
3.1732693077230896,-0.019666155699862437
3.1772709083633455,-0.14237012651736883
3.1812725090036014,-0.08941099097158754
3.1852741096438577,-0.094242126918272
3.1892757102841136,-0.046552580605434844
3.19327731092437,-0.10592684090701424
3.197278911564626,-0.16269630760200682
3.201280512204882,-0.12449121224676225
3.205282112845138,0.022841685441709766
3.2092837134853944,-0.11528434555714409
3.2132853141256503,-0.13789651608280276
3.2172869147659067,-0.05288329904195735
3.2212885154061626,-0.044581218003193424
3.225290116046419,-0.02240282256327371
3.229291716686675,-0.16294194744965337
3.2332933173269307,-0.08177632786739984
3.237294917967187,-0.13521267911370866
3.241296518607443,-0.08930597495631756
3.2452981192476993,-0.10719161377189854
3.249299719887955,-0.16548732738352492
3.2533013205282115,-0.16996391524141324
3.2573029211684674,0.0260882189210622
3.2613045218087238,-0.05854996306875962
3.2653061224489797,-0.12084184953134525
3.269307723089236,0.07653371659313923
3.273309323729492,-0.0031504946131763467
3.2773109243697482,-0.028514129107851782
3.281312525010004,-0.03231184547013807
3.28531412565026,-0.073038926974338
3.2893157262905164,0.008130488198560881
3.2933173269307723,-0.05370735316014264
3.2973189275710286,-0.01917855007624479
3.3013205282112845,0.03874840912132953
3.305322128851541,0.07248427195266752
3.3093237294917968,0.18194834206598642
3.313325330132053,0.31764615961454806
3.317326930772309,0.5822345904719799
3.3213285314125653,0.9594819172870634
3.3253301320528212,1.1881658277773046
3.3293317326930776,1.1998563160420384
3.3333333333333335,1.1161436364561068
3.3373349339735894,0.8956436007217743
3.3413365346138457,0.5571547060415967
3.3453381352541016,0.25984494877763054
3.349339735894358,0.04635108540857114
3.353341336534614,-0.046507767913817145
3.35734293717487,-0.04694749521329003
3.361344537815126,-0.238795027339322
3.3653461384553824,-0.24764246967762785
3.3693477390956383,-0.27649641356754723
3.3733493397358947,-0.2295075200917888
3.3773509403761506,-0.24757624489061528
3.3813525410164065,-0.32871124940799723
3.385354141656663,-0.21871719403058024
3.3893557422969187,-0.1988450521151159
3.393357342937175,-0.15748077502081403
3.397358943577431,-0.09005528816651664
3.4013605442176873,-0.1131421474228546
3.405362144857943,-0.022418914381515866
3.4093637454981995,-0.09822501790119238
3.4133653461384554,-0.14003186778544371
3.417366946778712,0.08013465831252868
3.4213685474189677,0.03945141275802298
3.425370148059224,0.0494052809994995
3.42937174869948,-0.04748961427879139
3.433373349339736,0.10211109998669951
3.437374949979992,0.16714515755779139
3.441376550620248,0.15687209571727279
3.4453781512605044,0.06605494078232839
3.4493797519007603,0.06076562237500095
3.4533813525410166,0.13061613058885274
3.4573829531812725,0.1257709842362641
3.461384553821529,0.15326756893299184
3.4653861544617848,0.16374286761527618
3.469387755102041,0.21970678495458046
3.473389355742297,0.21867673440810184
3.4773909563825534,0.2750277596852416
3.4813925570228093,0.24806900161811357
3.485394157663065,0.22476408393624261
3.4893957583033215,0.3030508491959209
3.4933973589435774,0.3652343799377815
3.4973989595838337,0.14325024377842133
3.5014005602240896,0.34655993181632233
3.505402160864346,0.4543453261734798
3.509403761504602,0.38779623906221733
3.513405362144858,0.331145685734515
3.517406962785114,0.4881456870608568
3.5214085634253705,0.4193115726080169
3.5254101640656264,0.4581369843233652
3.5294117647058827,0.3457788679597052
3.5334133653461386,0.37783407139016095
3.5374149659863945,0.5127491051259225
3.541416566626651,0.4911626277959937
3.5454181672669067,0.37995742123849163
3.549419767907163,0.3888655905243296
3.553421368547419,0.47032232576672994
3.5574229691876753,0.4016910945485117
3.561424569827931,0.3200787411945126
3.5654261704681876,0.29975702608068405
3.5694277711084434,0.34144075594025336
3.5734293717487,0.36408620612138254
3.5774309723889557,0.1937303653852353
3.581432573029212,0.23110747293468276
3.585434173669468,0.22480205425938676
3.589435774309724,0.2785532106346514
3.59343737494998,0.1640824872290553
3.597438975590236,0.1257463217196161
3.6014405762304924,0.27625186229589044
3.6054421768707483,0.27270731949336663
3.6094437775110046,0.20420371788336228
3.6134453781512605,0.15046290227721448
3.617446978791517,0.18764992208856068
3.621448579431773,0.1953362487980378
3.625450180072029,0.18839721037635235
3.629451780712285,0.23296264858998425
3.6334533813525414,0.03344218623294935
3.6374549819927973,0.21873515113400205
3.641456582633053,0.2415747311757058
3.6454581832733095,0.05957409914392528
3.6494597839135654,0.11863961482196184
3.6534613845538217,0.20998263696237787
3.6574629851940776,0.25144562520642194
3.661464585834334,0.19931613525439817
3.66546618647459,0.046288018181278735
3.6694677871148462,0.21201907454128988
3.673469387755102,0.24672225316480328
3.6774709883953585,0.14349358169283688
3.6814725890356144,0.14718994099172977
3.6854741896758707,0.17233327548253072
3.6894757903161266,0.20546882787790127
3.6934773909563825,0.25665132910520794
3.697478991596639,0.17029410542462567
3.7014805922368947,0.17265777341753707
3.705482192877151,0.23329355030686327
3.709483793517407,0.144019622747737
3.7134853941576633,0.2148044494620776
3.717486994797919,0.14303604692899144
3.7214885954381756,0.20872015618863293
3.7254901960784315,0.1349950853288523
3.729491796718688,0.03620483633319062
3.7334933973589437,0.1418407005200989
3.7374949979992,0.25436665876558506
3.741496598639456,0.310691297635849
3.745498199279712,0.15892293300511118
3.749499799919968,0.21563000204931387
3.753501400560224,0.22708684343466584
3.7575030012004804,0.1627484303697026
3.7615046018407363,0.22583586360397231
3.7655062024809927,0.2613048677108495
3.7695078031212486,0.20957135943977404
3.773509403761505,0.23932082709461497
3.777511004401761,0.25419772638715804
3.781512605042017,0.2777360296207468
3.785514205682273,0.28631839153628963
3.7895158063225294,0.24615753729804704
3.7935174069627853,0.16974885465128323
3.797519007603041,0.20376620439812393
3.8015206082432975,0.19818310024618668
3.8055222088835534,0.26999064379986476
3.8095238095238098,0.19907715933605966
3.8135254101640657,0.18492375271432068
3.817527010804322,0.30487413814653735
3.821528611444578,0.44563920544673463
3.8255302120848342,0.2470074304409395
3.82953181272509,0.15617039647369277
3.8335334133653465,0.25455947800097006
3.8375350140056024,0.24244466682464322
3.8415366146458583,0.2565016643107741
3.8455382152861146,0.16303688748102116
3.8495398159263705,0.1930371962092364
3.853541416566627,0.22825940555714164
3.8575430172068828,0.33712939661954916
3.861544617847139,0.1832964947189921
3.865546218487395,0.212201178695211
3.8695478191276513,0.32073519419796065
3.8735494197679072,0.3854258097091028
3.8775510204081636,0.16467284999963167
3.8815526210484195,0.21158572876346152
3.885554221688676,0.24050444527212475
3.8895558223289317,0.3115935037262918
3.8935574229691876,0.2164676869621292
3.897559023609444,0.18461687957968212
3.9015606242497,0.2301093278032611
3.905562224889956,0.30016172268287283
3.909563825530212,0.2577723545396192
3.9135654261704684,0.19602266622636957
3.9175670268107243,0.2873821541929159
3.9215686274509807,0.36806878313472796
3.9255702280912366,0.26978703492121553
3.929571828731493,0.30641894164041256
3.933573429371749,0.2460972283393011
3.937575030012005,0.30896054039317283
3.941576630652261,0.23987926488523484
3.945578231292517,0.20202610375487684
3.9495798319327733,0.25100726214794694
3.953581432573029,0.33255423688801566
3.9575830332132855,0.2884503938352989
3.9615846338535414,0.16037555389058986
3.9655862344937978,0.23770402330530238
3.9695878351340537,0.29780879624177875
3.97358943577431,0.3044252572188089
3.977591036414566,0.3048066669318706
3.9815926370548222,0.23715228234088145
3.985594237695078,0.2790965900613935
3.9895958383353345,0.32261631335713137
3.9935974389755904,0.2596067933066745
3.9975990396158463,0.22993220536350484
4.001600640256102,0.16563372047351668
4.0056022408963585,0.2951998919676456
4.009603841536615,0.27806123415831335
4.013605442176871,0.23440602853074538
4.017607042817127,0.21758208681010224
4.021608643457383,0.3549967718221539
4.025610244097639,0.2943811283778045
4.029611844737896,0.33052164570627107
4.033613445378151,0.24178220963451263
4.0376150460184075,0.30615605718677324
4.041616646658664,0.27803225519177355
4.04561824729892,0.20030135299609642
4.049619847939176,0.321458016936551
4.053621448579432,0.2595582195627229
4.057623049219688,0.2968430568855054
4.061624649859944,0.31669384366200576
4.0656262505002,0.18492870495571742
4.069627851140456,0.3578497226380467
4.073629451780713,0.34802130735878045
4.077631052420968,0.30721855745609944
4.081632653061225,0.2639649219109247
4.085634253701481,0.30931410300202034
4.089635854341737,0.37065410807282295
4.093637454981993,0.2652282665021104
4.097639055622249,0.23109569218239798
4.101640656262505,0.32050828256714026
4.105642256902761,0.3525087515763564
4.109643857543017,0.3241898219094155
4.1136454581832735,0.2589246176561337
4.11764705882353,0.3391642788233191
4.121648659463785,0.38248775745820274
4.125650260104042,0.4037740393909771
4.129651860744298,0.34251360287745897
4.133653461384554,0.3197560223030822
4.13765506202481,0.36405754846247323
4.141656662665066,0.48450832489115453
4.1456582633053225,0.49463271174937357
4.149659863945578,0.8427710025949802
4.153661464585834,1.1694915315630474
4.157663065226091,1.5517830489879367
4.161664665866347,1.4650343923510063
4.165666266506602,1.3472986119306398
4.169667867146859,1.161977810422826
4.173669467787115,0.8699847561149912
4.1776710684273715,0.5011931667386471
4.181672669067627,0.3466081680574307
4.185674269707883,0.2750854652630976
4.18967587034814,0.2094899829266407
4.193677470988396,0.04446382192282593
4.197679071628651,0.002754032935882028
4.201680672268908,0.06769064628453916
4.205682272909164,0.13024315311910875
4.2096838735494195,0.05009115741737534
4.213685474189676,-0.07032581119192342
4.217687074829932,-0.04914346128719309
4.221688675470189,0.009910461849222105
4.225690276110444,0.11692426008505019
4.2296918767507,-0.014054198485734151
4.233693477390957,0.1321348750091338
4.237695078031213,0.25335916928513175
4.2416966786714685,0.23998750917410117
4.245698279311725,0.14063940417496726
4.249699879951981,0.2152295451119547
4.253701480592237,0.21101227747843448
4.257703081232493,0.3159160167665408
4.261704681872749,0.25705035165142087
4.265706282513006,0.25778555281402155
4.269707883153261,0.33729634218757115
4.2737094837935174,0.2666479240483302
4.277711084433774,0.2583502437944707
4.28171268507403,0.28196172207747755
4.285714285714286,0.39284583727979
4.289715886354542,0.4190481450486307
4.293717486994798,0.3099976186561363
4.297719087635055,0.30673321080462573
4.30172068827531,0.4161256114630836
4.305722288915566,0.4574903361660011
4.309723889555823,0.43759655656975166
4.313725490196078,0.4397614389448186
4.3177270908363345,0.4099257919473563
4.321728691476591,0.5195472363000737
4.325730292116847,0.5650853622335688
4.329731892757103,0.38036333352714174
4.333733493397359,0.4830732063115982
4.337735094037615,0.5882858482264767
4.341736694677872,0.610892668468851
4.345738295318127,0.5707673599752083
4.3497398959583835,0.4711979859242612
4.35374149659864,0.6132053317760401
4.357743097238895,0.5961896605793491
4.361744697879152,0.500679709832264
4.365746298519408,0.591030664673987
4.369747899159664,0.5948747341830962
4.37374949979992,0.5686093885759246
4.377751100440176,0.5712583949001374
4.3817527010804325,0.4505285966176456
4.385754301720689,0.5240760838328566
4.389755902360944,0.5202878797133409
4.393757503001201,0.4459455615855936
4.397759103641457,0.4697388406088525
4.401760704281713,0.4308439821793182
4.405762304921969,0.5037409595051118
4.409763905562225,0.3515741067286401
4.413765506202481,0.3158773996804643
4.417767106842737,0.38766281548766285
4.421768707482993,0.426063984275747
4.42577030812325,0.4132239585620502
4.429771908763506,0.35965043236118405
4.433773509403761,0.31109643961006656
4.437775110044018,0.4852830782145575
4.441776710684274,0.34921038094174806
4.44577831132453,0.28098808721852897
4.449779911964786,0.2789476288754246
4.453781512605042,0.18636368459861175
4.4577831132452985,0.38888682071574043
4.461784713885554,0.1751880662458503
4.46578631452581,0.2973217844167694
4.469787915166067,0.3292625734445666
4.473789515806323,0.2718973903572172
4.4777911164465785,0.182795103448295
4.481792717086835,0.2680212502898852
4.485794317727091,0.33663935185990385
4.4897959183673475,0.2771747318501994
4.493797519007603,0.19937421735783944
4.497799119647859,0.16970718726468917
4.501800720288116,0.2535239998217983
4.505802320928372,0.21779458678129715
4.509803921568627,0.2516795204521345
4.513805522208884,0.2681727721253247
4.51780712284914,0.3164880148507198
4.5218087234893956,0.3181559938516537
4.525810324129652,0.23495756667302337
4.529811924769908,0.2217170382078452
4.533813525410165,0.1855243348679088
4.53781512605042,0.23739345755150404
4.541816726690676,0.19039139660761606
4.545818327330933,0.2481328043507599
4.549819927971189,0.20676975717616894
4.5538215286114445,0.18573224607226507
4.557823129251701,0.33217982388049627
4.561824729891957,0.11412875596945571
4.565826330532213,0.16813582127765112
4.569827931172469,0.2774242074183306
4.573829531812725,0.3108394811953964
4.577831132452982,0.3029868434327531
4.581832733093237,0.059479970086096026
4.5858343337334935,0.20516442975308755
4.58983593437375,0.2915168997939836
4.593837535014006,0.24501395179151836
4.597839135654262,0.11874038739951032
4.601840736294518,0.25168868636637826
4.605842336934774,0.2865634191303487
4.609843937575031,0.23014180578148444
4.613845538215286,0.13680893258945415
4.617847138855542,0.23211750632294542
4.621848739495799,0.2680301072948821
4.625850340136054,0.15574647033681582
4.629851940776311,0.08789238976318069
4.633853541416567,0.14645448195794736
4.637855142056823,0.24358516392591778
4.641856742697079,0.270634166712789
4.645858343337335,0.201701928324419
4.649859943977591,0.1457667509245335
4.653861544617848,0.3015308455675711
4.657863145258103,0.29728270150102126
4.6618647458983595,0.1148595994376791
4.665866346538616,0.1602861628329172
4.669867947178871,0.2395699499471157
4.673869547819128,0.2691758185290392
4.677871148459384,0.1737302220468855
4.68187274909964,0.10921014772880777
4.685874349739896,0.2356273827593455
4.689875950380152,0.14491958789602416
4.6938775510204085,0.1391327488149031
4.697879151660665,0.13633386248872037
4.70188075230092,0.14954696564314818
4.705882352941177,0.1501883026840421
4.709883953581433,0.09427813261457622
4.713885554221688,0.10674254623869042
4.717887154861945,0.14611212636615978
4.721888755502201,0.14917630887076344
4.7258903561424574,0.18105098311573425
4.729891956782713,0.10387560444686053
4.733893557422969,0.0403230178631719
4.737895158063226,0.18512255777398762
4.741896758703482,0.13254955826736964
4.745898359343737,0.07106800566887823
4.749899959983994,0.0620568142908114
4.75390156062425,0.17457913120306448
4.757903161264506,0.19754933647759762
4.761904761904762,0.11390562027662039
4.765906362545018,0.07858781206173973
4.7699079631852745,0.17028505269949976
4.77390956382553,0.15897998129833218
4.777911164465786,0.06049722105985354
4.781912765106043,0.12804247971984262
4.785914365746299,0.0884627127860923
4.7899159663865545,0.15328849602322167
4.793917567026811,0.11758295024238814
4.797919167667067,0.06801141779373296
4.8019207683073235,0.018839898236113716
4.805922368947579,0.1901378135077534
4.809923969587835,0.13044137689076327
4.813925570228092,0.0836187884164423
4.817927170868347,0.1521537725278373
4.821928771508603,0.17858786214481934
4.82593037214886,0.16438335536016063
4.829931972789116,0.004278753645607113
4.833933573429372,0.07759182838337096
4.837935174069628,0.09544108713049487
4.841936774709884,0.06563019057567691
4.845938375350141,0.008979201453202967
4.849939975990396,0.10834093192412378
4.853941576630652,0.12415489227840704
4.857943177270909,0.04356350210258265
4.861944777911165,-0.01852266558766132
4.8659463785514205,-0.018926417473439545
4.869947979191677,0.05763228158751041
4.873949579831933,0.14691489290803264
4.877951180472189,0.07592844521878102
4.881952781112445,0.06535305013007477
4.885954381752701,0.08902242801113347
4.889955982392958,0.12087175455719944
4.893957583033213,0.08380194699056426
4.8979591836734695,0.03151981637182241
4.901960784313726,0.04321548555124138
4.905962384953982,0.0407003526146182
4.909963985594238,-0.04323976131920098
4.913965586234494,0.09018012650479465
4.91796718687475,0.06858368277792663
4.921968787515006,0.026604581978531654
4.925970388155262,0.11661641574962053
4.9299719887955185,0.0037650548492215025
4.933973589435775,-0.05123435274114571
4.93797519007603,0.05768572439705127
4.941976790716287,0.15114305654145277
4.945978391356543,0.010574211980327118
4.949979991996799,-0.044325771230122504
4.953981592637055,-0.02946929471220533
4.957983193277311,0.07451484628083747
4.961984793917567,0.005590028752246859
4.965986394557824,-0.04326611561585321
4.969987995198079,0.09430045094094956
4.9739895958383356,0.2557095983723874
4.977991196478592,0.34761654432896466
4.981992797118847,0.5363352272122346
4.985994397759104,0.8787189512014423
4.98999599839936,1.1626077309950154
4.993997599039616,1.114055985498144
4.997999199679872,1.0772282646598705
5.002000800320128,0.9329422397438051
5.0060024009603845,0.6356390963694833
5.010004001600641,0.2643060493973256
5.014005602240896,-0.0836657152557356
5.018007202881153,-0.09539214123760108
5.022008803521409,-0.12132952004761885
5.0260104041616644,-0.15057735095609054
5.030012004801921,-0.33722430055434344
5.034013605442177,-0.37058563972041225
5.0380152060824335,-0.31131614463668805
5.042016806722689,-0.27022663635199945
5.046018407362945,-0.3120868360287564
5.050020008003202,-0.35598982246090893
5.054021608643458,-0.19875599109830164
5.058023209283713,-0.23513172758584075
5.06202480992397,-0.3391432360666869
5.066026410564226,-0.2775685856130958
5.070028011204482,-0.12929332163768448
5.074029611844738,-0.08358583614826307
5.078031212484994,-0.12101225702512214
5.082032813125251,-0.1338471199408366
5.086034413765506,-0.12994260207586888
5.090036014405762,0.02266364166869623
5.094037615046019,-0.13961025132966207
5.098039215686275,-0.10288283579276813
5.1020408163265305,-0.02584401446301119
5.106042416966787,0.10052080770896812
5.110044017607043,-0.07345791469869868
5.1140456182472995,-0.029131595843592803
5.118047218887555,-0.04267124068003855
5.122048819527811,0.07086745024042912
5.126050420168068,0.0557778146902014
5.130052020808323,-0.07245521069325449
5.1340536214485795,-0.016255649392932173
5.138055222088836,0.1702906319540442
5.142056822729092,0.12993123479452742
5.146058423369348,0.05303670717952867
5.150060024009604,0.04054358018361707
5.15406162464986,0.12475845837742668
5.158063225290117,0.10356037425558624
5.162064825930372,0.03429080849992354
5.166066426570628,0.11082781989170463
5.170068027210885,0.11084254854284424
5.17406962785114,0.23978174626532983
5.178071228491397,0.17894120632162544
5.182072829131653,0.19332697111606428
5.186074429771909,0.2385896500630223
5.190076030412165,0.20737207254043186
5.194077631052421,0.1877254281068242
5.198079231692677,0.05563222840139971
5.202080832332934,0.20810511476871527
5.206082432973189,0.24600599694438952
5.2100840336134455,0.09221029830630653
5.214085634253702,0.0920221459103166
5.218087234893958,0.14606448077534656
5.222088835534214,0.11648123788503587
5.22609043617447,0.1311975598622006
5.230092036814726,0.035134743884963314
5.234093637454982,-0.03580604462599838
5.238095238095238,0.04040891543885851
5.2420968387354945,0.008068307892819346
5.246098439375751,-0.06110086897059401
5.250100040016006,-0.07347758417905978
5.254101640656263,-0.05101639865006714
5.258103241296519,-0.003726601584430743
5.262104841936775,-0.1279872071445634
5.266106442577031,-0.14797808793472167
5.270108043217287,0.04490479116159609
5.274109643857543,-0.051682836438750115
5.278111244497799,-0.11438558827366696
5.282112845138055,-0.1815576601366484
5.286114445778312,-0.12075535164296007
5.290116046418568,-0.17340022279542072
5.294117647058823,-0.1309605579226923
5.29811924769908,-0.14452027187802632
5.302120848339336,-0.16200861311164444
5.306122448979592,-0.14509984869112585
5.310124049619848,-0.2713179431988883
5.314125650260104,-0.19315221196088675
5.3181272509003605,-0.22242944489899735
5.322128851540617,-0.21184211407470874
5.326130452180872,-0.08068897376433129
5.330132052821129,-0.2548917330201285
5.334133653461385,-0.06628129949907355
5.3381352541016405,-0.19406181684100146
5.342136854741897,-0.1512388604285646
5.346138455382153,-0.2791189948966811
5.3501400560224095,-0.3100967840113419
5.354141656662665,-0.16302506564670166
5.358143257302921,-0.20196972250234577
5.362144857943178,-0.30716207215251434
5.366146458583434,-0.1715002904602696
5.370148059223689,-0.05305225259877229
5.374149659863946,-0.18692831326626158
5.378151260504202,-0.20734400456708277
5.382152861144458,-0.2587152559004142
5.386154461784714,-0.12200460339314224
5.39015606242497,-0.11138362153658907
5.394157663065227,-0.2386508126981823
5.398159263705482,-0.30576328378625905
5.402160864345738,-0.10675474237230313
5.406162464985995,-0.1814481520005088
5.410164065626251,-0.2060501331212266
5.4141656662665065,-0.3427439345225107
5.418167266906763,-0.19921201707614603
5.422168867547019,-0.05663105707581255
5.4261704681872756,-0.06463227850146687
5.430172068827531,-0.23276825374054189
5.434173669467787,-0.2313534612563723
5.438175270108044,-0.18038860404119916
5.442176870748299,-0.2004419968347619
5.4461784713885555,-0.17616250790017574
5.450180072028812,-0.23017684416225
5.454181672669068,-0.10905189359734248
5.458183273309324,-0.14726129064815074
5.46218487394958,-0.17139878133564462
5.466186474589836,-0.25183220907262843
5.470188075230093,-0.15065954759568795
5.474189675870348,-0.12380053534952534
5.4781912765106044,-0.2875496317887927
5.482192877150861,-0.2831804411250276
5.486194477791116,-0.18317109081942407
5.490196078431373,-0.19700122194515327
5.494197679071629,-0.2634666307519168
5.498199279711885,-0.2669146947234906
5.502200880352141,-0.26305655422889523
5.506202480992397,-0.22314100735155706
5.510204081632653,-0.2300428499838892
5.51420568227291,-0.261836965351837
5.518207282913165,-0.3510076590537868
5.5222088835534215,-0.15072464548084857
5.526210484193678,-0.21001317696378835
5.530212084833934,-0.28584469431760673
5.53421368547419,-0.33783952781845045
5.538215286114446,-0.1230990797906947
5.542216886754702,-0.19470329512999152
5.546218487394958,-0.25051873436972144
5.550220088035214,-0.2110688590021919
5.5542216886754705,-0.22317863636370538
5.558223289315727,-0.26284837909575787
5.562224889955982,-0.29222577882454404
5.566226490596239,-0.3143320108099574
5.570228091236495,-0.22159272742771233
5.574229691876751,-0.1629681550368304
5.578231292517007,-0.38047555361723406
5.582232893157263,-0.3538040554693026
5.5862344937975195,-0.2577193605093537
5.590236094437775,-0.2748783757769057
5.594237695078031,-0.21558254489089554
5.598239295718288,-0.3405003645317645
5.602240896358544,-0.259206594282158
5.606242496998799,-0.21495288966690368
5.610244097639056,-0.25857917517658585
5.614245698279312,-0.28018146742869116
5.618247298919568,-0.3322517014013589
5.622248899559824,-0.12997771301424826
5.62625050020008,-0.25854244574330104
5.630252100840337,-0.36020958157347654
5.634253701480592,-0.36707149739749423
5.638255302120848,-0.21477028701275594
5.642256902761105,-0.2597131851771417
5.646258503401361,-0.31634720632763724
5.6502601040416165,-0.3007682714406199
5.654261704681873,-0.23878037959903006
5.658263305322129,-0.22949936402485574
5.6622649059623855,-0.26499375783131646
5.666266506602641,-0.2491820790344034
5.670268107242897,-0.2506655339581396
5.674269707883154,-0.22319410612917523
5.67827130852341,-0.2157520383271842
5.6822729091636655,-0.3758403949438754
5.686274509803922,-0.21424587858551464
5.690276110444178,-0.2145188310008137
5.694277711084434,-0.3583167121296288
5.69827931172469,-0.3894069222046618
5.702280912364946,-0.35262928587998704
5.706282513005203,-0.22856331189910306
5.710284113645458,-0.2755112397506018
5.714285714285714,-0.3960895511993787
5.718287314925971,-0.2946527324154429
5.722288915566227,-0.2766248969005035
5.7262905162064826,-0.22004427486334519
5.730292116846739,-0.33236552774338785
5.734293717486995,-0.34358633741276856
5.738295318127251,-0.17596034784840475
5.742296918767507,-0.3886506326190846
5.746298519407763,-0.259207458159613
5.75030012004802,-0.3401490704339181
5.754301720688275,-0.32615478851481317
5.7583033213285315,-0.30814783741259044
5.762304921968788,-0.2670651065236801
5.766306522609044,-0.29839265873948373
5.7703081232493,-0.30902974440129133
5.774309723889556,-0.2612009658683795
5.778311324529812,-0.33433764203972616
5.782312925170069,-0.4480852029444366
5.786314525810324,-0.2282928657754682
5.7903161264505805,-0.2131631786948981
5.794317727090837,-0.25980006600137723
5.798319327731092,-0.3122856893715412
5.802320928371349,-0.24011396846468425
5.806322529011605,-0.1197738074604302
5.810324129651861,0.011755686934979095
5.814325730292117,0.24281935236528193
5.818327330932373,0.5850314627148513
5.822328931572629,0.9414314275539198
5.826330532212886,0.8557727990397452
5.830332132853141,0.7523352226757787
5.834333733493398,0.527184231669511
5.838335334133654,0.27075726959925894
5.842336934773909,0.012835926759083315
5.846338535414166,-0.23125730077656018
5.850340136054422,-0.4426776398291428
5.854341736694678,-0.3825089775588756
5.858343337334934,-0.42877437963322096
5.86234493797519,-0.6171020985826168
5.8663465386154465,-0.5440133510602447
5.870348139255703,-0.5276769795967452
5.874349739895958,-0.5426592540267885
5.878351340536215,-0.6013346252340658
5.882352941176471,-0.5687863912605227
5.886354541816727,-0.6226651376551056
5.890356142456983,-0.479792311810394
5.894357743097239,-0.5692076801150475
5.8983593437374955,-0.5156072262004616
5.902360944377751,-0.4753375568207862
5.906362545018007,-0.30333275056022563
5.910364145658264,-0.32023025929322835
5.91436574629852,-0.39879671614063705
5.918367346938775,-0.35048115140525965
5.922368947579032,-0.3023608640316307
5.926370548219288,-0.2252277948136363
5.9303721488595444,-0.3362660699503597
5.9343737494998,-0.2218298503247168
5.938375350140056,-0.2506260578498499
5.942376950780313,-0.30422172009897164
5.946378551420568,-0.32458961761976113
5.950380152060824,-0.288044395443052
5.954381752701081,-0.16140874991336562
5.958383353341337,-0.19749854680827425
5.9623849539815925,-0.20726152379349966
5.966386554621849,-0.17982806035052926
5.970388155262105,-0.18571365317542324
5.9743897559023615,-0.232259022117065
5.978391356542617,-0.09448532475467718
5.982392957182873,-0.263685015297821
5.98639455782313,-0.09612618850800424
5.990396158463386,-0.044985166951293065
5.9943977591036415,-0.12643072834610491
5.998399359743898,-0.147198819866568
6.002400960384154,0.04002856617861477
6.00640256102441,0.03807930757176142
6.010404161664666,0.03976093755536804
6.014405762304922,-0.1335092324481394
6.018407362945179,0.04474760713868852
6.022408963585434,0.017743739315910487
6.02641056422569,0.10439516618701122
6.030412164865947,-0.04473620657248404
6.034413765506203,0.012212285285453227
6.038415366146459,0.08020959088390531
6.042416966786715,0.07286328819219796
6.046418567426971,-0.0309666130949182
6.050420168067227,-0.01813146401904983
6.054421768707483,0.006954746964401244
6.058423369347739,-0.06904096014614061
6.062424969987996,-0.06416006720507363
6.066426570628251,-0.12908663453377117
6.0704281712685075,-0.11117680299767974
6.074429771908764,-0.044854281976058806
6.07843137254902,-0.12900528301509273
6.082432973189276,-0.18651047369669563
6.086434573829532,-0.2021195880554961
6.090436174469788,0.01387752595299329
6.094437775110045,-0.2528430393569566
6.0984393757503,-0.18196802142209753
6.1024409763905565,-0.029231859212449245
6.106442577030813,-0.042864073098706004
6.110444177671068,-0.25842722393715317
6.114445778311325,-0.3288345699812848
6.118447378951581,-0.242539041854303
6.122448979591837,-0.1970112354761571
6.126450580232093,-0.20807503802786603
6.130452180872349,-0.31566303690900105
6.1344537815126055,-0.26799707616596724
6.138455382152862,-0.22268773919312312
6.142456982793117,-0.22201700885724657
6.146458583433374,-0.2989350281606973
6.15046018407363,-0.23466210616950017
6.154461784713885,-0.22173455770765696
6.158463385354142,-0.20877534234546202
6.162464985994398,-0.29037861970377793
6.166466586634654,-0.3030505772953479
6.17046818727491,-0.24611389914311005
6.174469787915166,-0.2195065952737177
6.1784713885554225,-0.14486791039606595
6.182472989195679,-0.2574315554614291
6.186474589835934,-0.20145800692913712
6.190476190476191,-0.2511048869009278
6.194477791116447,-0.2424858275306183
6.1984793917567025,-0.31041302630899614
6.202480992396959,-0.260880030465642
6.206482593037215,-0.22823069177456062
6.2104841936774715,-0.2571626894434266
6.214485794317727,-0.3288170814991185
6.218487394957983,-0.26619441044745873
6.22248899559824,-0.044802717444044717
6.226490596238496,-0.22435713644475522
6.230492196878751,-0.22114171669258734
6.234493797519008,-0.12004974491952204
6.238495398159264,-0.17558233709617876
6.2424969987995205,-0.09691878183859137
6.246498599439776,-0.3595823596393203
6.250500200080032,-0.36247518632447107
6.254501800720289,-0.20249284681208535
6.258503401360544,-0.12129862919328273
6.2625050020008,-0.2869430898625827
6.266506602641057,-0.2560938159094754
6.270508203281313,-0.18463806308738095
6.2745098039215685,-0.13598966112712152
6.278511404561825,-0.27833621911158724
6.282513005202081,-0.28421508457981715
6.286514605842338,-0.18511401616557246
6.290516206482593,-0.15332215571572108
6.294517807122849,-0.15059336221078984
6.298519407763106,-0.17603707278754732
6.302521008403361,-0.14297462368228883
6.3065226090436175,-0.18464435883875932
6.310524209683874,-0.11792134134054195
6.31452581032413,-0.28131755707239114
6.318527410964386,-0.1370639950990062
6.322529011604642,-0.11577807840467227
6.326530612244898,-0.16309932965243465
6.330532212885155,-0.19960825543869287
6.33453381352541,-0.17552141397376791
6.3385354141656665,-0.13989058302126822
6.342537014805923,-0.04920498371321813
6.346538615446179,-0.31452886664716134
6.350540216086435,-0.2669655472750965
6.354541816726691,-0.1055181580608312
6.358543417366947,-0.10780632087120098
6.362545018007203,-0.1929679555079732
6.366546618647459,-0.3039631760046999
6.370548219287715,-0.21459303500596638
6.374549819927972,-0.20163464417444704
6.378551420568227,-0.20929226800193926
6.382553021208484,-0.17809666649394795
6.38655462184874,-0.27516125032943967
6.390556222488996,-0.04247245153296587
6.394557823129252,-0.1920100035176408
6.398559423769508,-0.1491017956598972
6.402561024409764,-0.07793531243199993
6.40656262505002,0.013288949817738413
6.410564225690276,-0.0448108819640837
6.4145658263305325,-0.2767280457990564
6.418567426970789,-0.2273515924210672
6.422569027611044,-0.06468421446017161
6.426570628251301,-0.18814418101992286
6.430572228891557,-0.15867609891096923
6.434573829531813,-0.18449578864784713
6.438575430172069,-0.010022069782920064
6.442577030812325,-0.022544906506206108
6.4465786314525815,-0.12277804882622492
6.450580232092838,-0.14935137323485026
6.454581832733093,-0.1252629302101614
6.45858343337335,-0.10258275239001731
6.462585034013606,-0.15832505429265442
6.466586634653861,-0.1528422591858125
6.470588235294118,-0.11626250117035189
6.474589835934374,-0.1003730914711135
6.47859143657463,-0.1752148617856042
6.482593037214886,-0.20227684327737966
6.486594637855142,-0.03629188464449661
6.490596238495399,-0.06097556034937826
6.494597839135655,-0.10437063900945283
6.49859943977591,-0.14313625187935153
6.502601040416167,-0.11241541247455657
6.506602641056423,-0.07661374048148639
6.5106042416966785,-0.0622200122067787
6.514605842336935,-0.24762859814383123
6.518607442977191,-0.16168518464092055
6.5226090436174475,-0.05770597465957477
6.526610644257703,-0.06105100835836362
6.530612244897959,-0.10151367308942155
6.534613845538216,-0.11180611591116987
6.538615446178472,-0.07638382836488111
6.5426170468187275,-0.12449622310862828
6.546618647458984,-0.10618564766228603
6.55062024809924,-0.059738627856163205
6.5546218487394965,-0.017054935636195492
6.558623449379752,0.10094420631174508
6.562625050020008,-0.029930999545278152
6.566626650660265,-0.06026348597660067
6.57062825130052,0.035755642864234854
6.574629851940776,0.061762030254892256
6.578631452581033,-0.029776537423894665
6.582633053221289,-0.07669346655396513
6.586634653861545,0.013157159833942195
6.590636254501801,0.04008867971480695
6.594637855142057,-0.0945935977331832
6.598639455782314,-0.10483857868105426
6.602641056422569,0.006031477601043784
6.606642657062825,0.026204035421435477
6.610644257703082,-0.09544036891029116
6.614645858343337,-0.0637635765337684
6.6186474589835935,0.008397102946285434
6.62264905962385,-0.04318204851249742
6.626650660264106,0.04927348487090901
6.630652260904362,0.017100336844961088
6.634653861544618,0.058260927352067934
6.638655462184874,0.24264136221053292
6.642657062825131,0.3830819330563029
6.646658663465386,0.5483258683505955
6.6506602641056425,0.8161417620764306
6.654661864745899,1.1257047290582736
6.658663465386155,1.2617609818227031
6.662665066026411,1.0736429680044597
6.666666666666667,0.920941245459587
6.670668267306923,0.5345339927751667
6.674669867947179,0.29982840418181006
6.678671468587435,0.08915737674728932
6.682673069227691,-0.08597818404484384
6.686674669867948,-0.07453276167791846
6.690676270508203,-0.10186648810706667
6.69467787114846,-0.22710036806634018
6.698679471788716,-0.3256324435712029
6.702681072428972,-0.3050837953205673
6.706682673069228,-0.27757845942944037
6.710684273709484,-0.3354352771311355
6.71468587434974,-0.27991972624355477
6.718687474989996,-0.25742686673540294
6.722689075630252,-0.1702206143890446
6.7266906762705085,-0.11447800947899146
6.730692276910765,-0.17451960088407048
6.73469387755102,-0.12157267690295606
6.738695478191277,-0.03916727576274168
6.742697078831533,0.04797425377775
6.746698679471789,0.015958944364575872
6.750700280112045,-0.0339727336174963
6.754701880752301,0.1150283035034197
6.7587034813925575,0.11640042733053402
6.762705082032813,0.10999831068821761
6.766706682673069,0.03992429695202331
6.770708283313326,0.11601817193012165
6.774709883953582,0.15774137810666017
6.778711484593837,0.040771245958788865
6.782713085234094,-0.05630696057272694
6.78671468587435,0.11840713370337197
6.7907162865146065,0.23880979116914985
6.794717887154862,0.072215741117616
6.798719487795118,0.06378889852689887
6.802721088435375,0.18966108751033622
6.806722689075631,0.2083958297530743
6.810724289715886,0.2641331832014458
6.814725890356143,0.3234831148562519
6.818727490996399,0.24827833153490692
6.8227290916366545,0.30174312472795867
6.826730692276911,0.2009693856578577
6.830732292917167,0.3127858866453294
6.834733893557424,0.27028555830477624
6.838735494197679,0.4400225782890744
6.842737094837935,0.45652918024562683
6.846738695478192,0.2999747944486161
6.850740296118448,0.3023069400590836
6.8547418967587035,0.4294434965082232
6.85874349739896,0.38258878296645027
6.862745098039216,0.35551078401324454
6.866746698679472,0.31222550947176925
6.870748299319728,0.357328631072245
6.874749899959984,0.4647165332777634
6.878751500600241,0.36395254731406207
6.882753101240496,0.26492383113442924
6.8867547018807524,0.43274910076717876
6.890756302521009,0.37060914688635255
6.894757903161265,0.32360653571040643
6.898759503801521,0.22185896498849741
6.902761104441777,0.2703759059366303
6.906762705082033,0.3381150167206473
6.91076430572229,0.25282359913266045
6.914765906362545,0.21262407079857557
6.918767507002801,0.2634575630476001
6.922769107643058,0.17918485357700006
6.926770708283313,0.13445485276298985
6.9307723089235695,0.18971907208879338
6.934773909563826,0.13998907705087668
6.938775510204082,0.2357411742014597
6.942777110844338,0.2023590550944082
6.946778711484594,0.17204921170148613
6.95078031212485,0.25224284219338744
6.954781912765107,0.171248048062051
6.958783513405362,0.3054132341848539
6.9627851140456185,0.0877864717455759
6.966786714685875,0.2585006157610469
6.97078831532613,0.18610489000248254
6.974789915966387,0.16688623674380387
6.978791516606643,0.09301061227644145
6.982793117246899,0.1937359132793326
6.986794717887155,0.1463670078506702
6.990796318527411,0.29353802798162854
6.9947979191676675,0.17914131539698658
6.998799519807924,0.08058960016984179
7.002801120448179,0.14724428492176397
7.006802721088436,0.23097799438133532
7.010804321728692,0.15132460305441403
7.014805922368948,0.18290058741233636
7.018807523009204,0.16541451891294282
7.02280912364946,0.17228620005084186
7.026810724289716,0.24871223596626718
7.030812324929972,0.13874686323519572
7.034813925570228,0.18922087142641808
7.038815526210485,0.23076485114456244
7.042817126850741,0.26384755086970585
7.046818727490996,0.07837318137689757
7.050820328131253,0.19610435857583192
7.054821928771509,0.21896195584820946
7.058823529411765,0.31459374833321235
7.062825130052021,0.12235534557011482
7.066826730692277,0.13852625238215277
7.0708283313325335,0.16665409417346588
7.074829931972789,0.36010002369212357
7.078831532613045,0.2654792647291195
7.082833133253302,0.11256394931620158
7.086834733893558,0.2820504242997759
7.0908363345338135,0.29073614518865815
7.09483793517407,0.21922827307783105
7.098839535814326,0.13575616960148
7.1028411364545825,0.2309524936311561
7.106842737094838,0.3579738354720993
7.110844337735094,0.2555122891147124
7.114845938375351,0.20516774662386492
7.118847539015607,0.31336503583018754
7.122849139655862,0.1868657484323286
7.126850740296119,0.20567921357037067
7.130852340936375,0.107205660730497
7.1348539415766306,0.19691739357958382
7.138855542216887,0.2467501215543922
7.142857142857143,0.26636428835200066
7.1468587434974,0.18475537225223881
7.150860344137655,0.15257046496061896
7.154861944777911,0.35387314835785316
7.158863545418168,0.2683474148601759
7.162865146058424,0.2643931060526942
7.1668667466986795,0.16834909155093147
7.170868347338936,0.2021214938658662
7.174869947979192,0.21008029343537088
7.178871548619448,0.25136871729429094
7.182873149259704,0.18744451549569913
7.18687474989996,0.32575143818454344
7.190876350540217,0.39844278071938394
7.194877951180472,0.2610138384427139
7.1988795518207285,0.20269744376931012
7.202881152460985,0.3169510336721158
7.206882753101241,0.30585283003424846
7.210884353741497,0.15856711095863896
7.214885954381753,0.20430643220381012
7.218887555022009,0.19523599626800606
7.222889155662265,0.33791684574511033
7.226890756302521,0.3031526362870362
7.230892356942777,0.23180069331680364
7.234893957583034,0.2308993040894872
7.238895558223289,0.2573486241336888
7.242897158863546,0.2877837392728555
7.246898759503802,0.19719778638146856
7.250900360144058,0.2805714331110762
7.254901960784314,0.2689073084038276
7.25890356142457,0.2940409842009923
7.262905162064826,0.21836027148391995
7.266906762705083,0.1920377393060854
7.270908363345338,0.2844380024825659
7.2749099639855945,0.29397671927749736
7.278911564625851,0.29481090894696943
7.282913165266106,0.18543439208041324
7.286914765906363,0.3177315828429382
7.290916366546619,0.23226235959987257
7.294917967186875,0.35509089995828297
7.298919567827131,0.18084382045745095
7.302921168467387,0.296432138735027
7.3069227691076435,0.2860081429888511
7.3109243697479,0.31637040907666986
7.314925970388155,0.15736279325990815
7.318927571028412,0.21030096102467852
7.322929171668668,0.476334424714805
7.326930772308923,0.2905666102418366
7.33093237294918,0.330716278267532
7.334933973589436,0.23448701102764277
7.3389355742296924,0.28057471449544574
7.342937174869948,0.30309521510585413
7.346938775510204,0.20278016447220215
7.350940376150461,0.272137892674761
7.354941976790717,0.35054733004542815
7.358943577430972,0.26659104916010884
7.362945178071229,0.21524864108775787
7.366946778711485,0.20125546225353216
7.370948379351741,0.30743132063915285
7.374949979991997,0.30308443548075104
7.378951580632253,0.3005861839517303
7.3829531812725095,0.31681334054884597
7.386954781912765,0.32550198612277803
7.390956382553021,0.3371619813518997
7.394957983193278,0.3134434054403461
7.398959583833534,0.2664429010168192
7.4029611844737895,0.19293297488720687
7.406962785114046,0.26836873825314
7.410964385754302,0.32183205572272394
7.4149659863945585,0.29554924019982
7.418967587034814,0.2918303326928971
7.42296918767507,0.2893307006552906
7.426970788315327,0.30917899987898795
7.430972388955582,0.21356421149107568
7.434973989595838,0.19979163438818512
7.438975590236095,0.3968183053779996
7.442977190876351,0.2615023630435769
7.446978791516607,0.23623238165186797
7.450980392156863,0.2887113015335549
7.454981992797119,0.3812730229725028
7.458983593437376,0.33980690857312007
7.462985194077631,0.21930207687634
7.466986794717887,0.28391053631056506
7.470988395358144,0.43344033238640006
7.4749899959984,0.703545479496638
7.4789915966386555,0.819791592776484
7.482993197278912,1.1363606365481835
7.486994797919168,1.3830046224544177
7.490996398559424,1.562612776896454
7.49499799919968,1.407352268120131
7.498999599839936,1.17647000088924
7.503001200480193,0.7589595083942385
7.507002801120448,0.6240151050062179
7.5110044017607045,0.4227871438388647
7.515006002400961,0.20507248416620322
7.519007603041217,0.13864277085074403
7.523009203681473,0.07019256422449563
7.527010804321729,0.07860928401856887
7.531012404961985,0.020803497591178464
7.535014005602241,-0.007660039147754143
7.539015606242497,0.028295064294353703
7.5430172068827535,-0.03426563657412114
7.54701880752301,-0.10660890031861618
7.551020408163265,0.040631960148877676
7.555022008803522,0.17741320374038475
7.559023609443778,0.034679032559106655
7.563025210084034,0.10194482565379992
7.56702681072429,0.21411345217364902
7.571028411364546,0.24745920902542562
7.575030012004802,0.24528945135512426
7.579031612645059,0.24833523700559032
7.583033213285314,0.2427961460787968
7.5870348139255706,0.31994421283921803
7.591036414565827,0.3863261395097224
7.595038015206082,0.2775720560319908
7.599039615846339,0.23442355964044637
7.603041216486595,0.3386837069054819
7.607042817126851,0.3734645982608496
7.611044417767107,0.28508254045072445
7.615046018407363,0.3596294286949557
7.6190476190476195,0.26012231921681317
7.623049219687876,0.35990828579870987
7.627050820328131,0.4096652702015848
7.631052420968388,0.3370814240471301
7.635054021608644,0.40916158281395554
7.6390556222488994,0.4077479859133398
7.643057222889156,0.4604741346562112
7.647058823529412,0.4300938243878337
7.6510604241696685,0.46070453091298086
7.655062024809924,0.505229393842852
7.65906362545018,0.5243383390815365
7.663065226090437,0.479290151259898
7.667066826730693,0.4672460839420214
7.671068427370948,0.6012877980023027
7.675070028011205,0.5711989354661432
7.679071628651461,0.5361279449708334
7.6830732292917165,0.49688755481765595
7.687074829931973,0.576811092068132
7.691076430572229,0.6168948758393075
7.695078031212486,0.5833313754710989
7.699079631852741,0.480533834618248
7.703081232492997,0.6459361314670397
7.707082833133254,0.6272395943614721
7.71108443377351,0.5803689699754193
7.7150860344137655,0.4564172541535611
7.719087635054022,0.529306878306013
7.723089235694278,0.5761552530504013
7.7270908363345345,0.48753881040722513
7.73109243697479,0.3210327875229162
7.735094037615046,0.3975547671483998
7.739095638255303,0.41433334948487216
7.743097238895558,0.3986465064925412
7.7470988395358145,0.4851973419339476
7.751100440176071,0.22292774121106096
7.755102040816327,0.4465021763946244
7.759103641456583,0.4173078160798498
7.763105242096839,0.35898362504671305
7.767106842737095,0.35534918098434454
7.771108443377352,0.25801564600658466
7.775110044017607,0.41123273896146045
7.779111644657863,0.2935073029357089
7.78311324529812,0.300164064159225
7.787114845938375,0.31276102485682616
7.791116446578632,0.43733786387103235
7.795118047218888,0.27845386773044833
7.799119647859144,0.17462084354304735
7.8031212484994,0.245744284575561
7.807122849139656,0.2784015902018826
7.811124449779912,0.28122434750729286
7.815126050420169,0.15921074093556853
7.819127651060424,0.2492061099649133
7.8231292517006805,0.3426510113969952
7.827130852340937,0.2933745470853135
7.831132452981193,0.22994380551638943
7.835134053621449,0.28684698312931867
7.839135654261705,0.15991850706474406
7.843137254901961,0.28924843431850195
7.847138855542217,0.220812959336341
7.851140456182473,0.1851811051138409
7.8551420568227295,0.3303415661173713
7.859143657462986,0.2518446047390469
7.863145258103241,0.15288561113967186
7.867146858743498,0.20620504589783245
7.871148459383754,0.21576583343841527
7.87515006002401,0.3534248933265696
7.879151660664266,0.2438826360832591
7.883153261304522,0.1719525948896501
7.887154861944778,0.17295431253337945
7.891156462585034,0.25609951875844517
7.89515806322529,0.23453383713149023
7.899159663865547,0.12630423787634004
7.903161264505803,0.2630724376442313
7.907162865146058,0.28611885538225323
7.911164465786315,0.13625728784995852
7.915166066426571,0.2289145420690928
7.919167667066827,0.17234436691720587
7.923169267707083,0.24122471095133163
7.927170868347339,0.29212059914263916
7.9311724689875955,0.10658875073727303
7.935174069627852,0.1056078578212071
7.939175670268107,0.17703188213110824
7.943177270908364,0.19730876496549668
7.94717887154862,0.2041240085898925
7.9511804721888755,0.05703469025636781
7.955182072829132,0.21134370490530743
7.959183673469388,0.3365659589713746
7.9631852741096445,0.20604645138459035
7.9671868747499,0.16360928691701868
7.971188475390156,0.2273838676486243
7.975190076030413,0.25965420639921255
7.979191676670669,0.21047143961061526
7.983193277310924,0.19799902600452274
7.987194877951181,0.16709770399608706
7.991196478591437,0.29193764479616147
7.995198079231693,0.18323310056186923
7.999199679871949,0.050739335440346346
8.003201280512204,0.169048702768954
8.00720288115246,0.18364997383878937
8.011204481792717,0.15254878845160874
8.015206082432973,0.16039738609075085
8.01920768307323,0.1057029948537539
8.023209283713486,0.2489423279171669
8.027210884353742,0.0921434273165726
8.031212484993999,0.15029643266788642
8.035214085634253,0.2510312627055399
8.03921568627451,0.1296761882098859
8.043217286914766,0.2592999565772063
8.047218887555022,0.07101399261625255
8.051220488195279,0.055131143313365966
8.055222088835535,0.29222944472862383
8.059223689475791,0.2854747227934381
8.063225290116046,0.1358499644668628
8.067226890756302,0.16765282918943855
8.071228491396559,0.12874605655428467
8.075230092036815,0.22379245362839797
8.079231692677071,0.1572890606874168
8.083233293317328,0.09264661741558086
8.087234893957584,0.10044437143790244
8.09123649459784,0.27924423176462504
8.095238095238095,0.17412002110034822
8.099239695878351,0.009080047079693586
8.103241296518608,0.17082249604930821
8.107242897158864,0.14100222261415832
8.11124449779912,0.13688517227316893
8.115246098439377,0.0764818455631273
8.119247699079633,0.08143467596040031
8.123249299719888,0.2092810634656015
8.127250900360144,0.17165525702455053
8.1312525010004,0.10218289828123418
8.135254101640657,0.061334899702705906
8.139255702280913,0.07682924469745228
8.14325730292117,0.08160234433703022
8.147258903561426,0.11590548589389583
8.15126050420168,0.08754782466798179
8.155262104841936,0.17096726335455456
8.159263705482193,0.15816219496190514
8.16326530612245,0.08242262089405133
8.167266906762706,0.045294106040073195
8.171268507402962,0.1340369802561202
8.175270108043218,0.18782542214026676
8.179271708683475,0.08877752280215712
8.183273309323729,0.017690296494570476
8.187274909963985,0.08445585167009231
8.191276510604242,0.1749970648423554
8.195278111244498,0.08520107802490011
8.199279711884754,0.06418576673056359
8.20328131252501,0.08754196745065655
8.207282913165267,0.1439869131242145
8.211284513805522,0.1384830544537748
8.215286114445778,0.03648775421854105
8.219287715086034,0.042923818095144645
8.22328931572629,0.12887517914840624
8.227290916366547,0.0817045044590656
8.231292517006803,0.006677979299479414
8.23529411764706,0.07784753550487382
8.239295718287316,0.09927103734524438
8.24329731892757,0.051820715122670225
8.247298919567827,-0.08104478063932055
8.251300520208083,0.023675116158978896
8.25530212084834,0.13956061282734597
8.259303721488596,0.055004728982532294
8.263305322128852,0.044032679997887875
8.267306922769109,-0.024633487390439295
8.271308523409363,0.07777751170732204
8.27531012404962,0.019907875326778915
8.279311724689876,-0.008510529742730335
8.283313325330132,-0.09466661895553655
8.287314925970389,0.03667873477399196
8.291316526610645,0.08591997746611463
8.295318127250901,0.020935649736038855
8.299319727891156,0.03828288827430104
8.303321328531412,0.0775955215873265
8.307322929171669,0.4129822284216701
8.311324529811925,0.6296618934621246
8.315326130452181,0.7278786240972153
8.319327731092438,1.1104025224318594
8.323329331732694,1.1932075687747492
8.32733093237295,1.155231967669375
8.331332533013205,0.7640294582089651
8.335334133653461,0.4462973378435951
8.339335734293718,0.317975759362918
8.343337334933974,0.047954555618111364
8.34733893557423,-0.0868033372482132
8.351340536214487,-0.17696333300956546
8.355342136854743,-0.15981860819675212
8.359343737494997,-0.22475755792861396
8.363345338135254,-0.37535766183445407
8.36734693877551,-0.39760625605689487
8.371348539415767,-0.24512974974694748
8.375350140056023,-0.26627484031479554
8.37935174069628,-0.4775048850266585
8.383353341336536,-0.2603157795316342
8.387354941976792,-0.1927199027610015
8.391356542617046,-0.10108313116610607
8.395358143257303,-0.21739976961327315
8.39935974389756,-0.14110856640846928
8.403361344537815,-0.07459920554051945
8.407362945178072,-0.1277794943999076
8.411364545818328,-0.11415553777824405
8.415366146458584,-0.17810068892765946
8.419367747098839,-0.038530100379738315
8.423369347739095,-0.049388061194692835
8.427370948379352,-0.027018100937794564
8.431372549019608,-0.06392844460265712
8.435374149659864,-0.0218455314090177
8.43937575030012,-0.00965484732037828
8.443377350940377,0.0898897945512109
8.447378951580633,-0.04530176575901172
8.451380552220888,-0.04701027448565893
8.455382152861144,0.07172302414340645
8.4593837535014,0.17229072251240787
8.463385354141657,0.08829774525421778
8.467386954781913,-0.15606838792032404
8.47138855542217,0.09840521823765208
8.475390156062426,0.1778730057666989
8.47939175670268,0.03262842236602633
8.483393357342937,-0.07541378910200974
8.487394957983193,0.1738604851346278
8.49139655862345,0.28368972421291927
8.495398159263706,0.08418275407972323
8.499399759903962,0.06338293260599666
8.503401360544219,0.22140704597849664
8.507402961184473,0.27840247780898775
8.51140456182473,0.08514000308993377
8.515406162464986,0.04813141598436017
8.519407763105242,0.15968171758807334
8.523409363745499,0.219675188017146
8.527410964385755,0.24633845568002083
8.531412565026011,0.07282916087732835
8.535414165666268,0.0916118750109709
8.539415766306522,0.2012984374678688
8.543417366946779,0.18405826793379665
8.547418967587035,0.15303621244326077
8.551420568227291,0.09135501163508478
8.555422168867548,0.14510934503122835
8.559423769507804,0.10629097935223625
8.56342537014806,0.019201979103447078
8.567426970788315,-0.030501595969024842
8.571428571428571,0.027528994344078437
8.575430172068828,0.06769802399747334
8.579431772709084,-0.10456082953577563
8.58343337334934,-0.08029216235884992
8.587434973989597,-0.07992545735720744
8.591436574629853,0.017573543769254032
8.59543817527011,-0.0858912229120792
8.599439775910364,-0.07805792163772002
8.60344137655062,-0.1954039533273863
8.607442977190876,-0.05498176725656292
8.611444577831133,-0.1205096150342744
8.61544617847139,-0.17670134136550794
8.619447779111646,-0.07428336511786718
8.623449379751902,-0.08794263155563167
8.627450980392156,-0.20754241930701825
8.631452581032413,-0.06158019493926284
8.635454181672669,-0.19991148926819324
8.639455782312925,-0.10489271360918179
8.643457382953182,-0.12593376636181508
8.647458983593438,-0.18733344318120562
8.651460584233694,-0.18457761010494517
8.65546218487395,-0.029408459261339476
8.659463785514205,-0.17296735278127318
8.663465386154462,-0.2714902335640922
8.667466986794718,-0.25501272634736727
8.671468587434974,-0.22570521069768476
8.67547018807523,-0.13215068598822838
8.679471788715487,-0.17830127012978195
8.683473389355743,-0.23669164271436227
8.687474989995998,-0.2495307661504026
8.691476590636254,-0.11930791200898208
8.69547819127651,-0.1554043549613044
8.699479791916767,-0.2429529092624411
8.703481392557023,-0.20376127316833223
8.70748299319728,-0.18933658773747614
8.711484593837536,-0.19729413506532203
8.71548619447779,-0.13813563844160942
8.719487795118047,-0.22899043525264295
8.723489395758303,-0.059022400149741854
8.72749099639856,-0.10911882868065623
8.731492597038816,-0.207884135570359
8.735494197679072,-0.26283891401132126
8.739495798319329,-0.14827781302399665
8.743497398959585,-0.20641300328101128
8.74749899959984,-0.24584338374263703
8.751500600240096,-0.18900088726459502
8.755502200880352,-0.2491011977101111
8.759503801520609,-0.19635563296648606
8.763505402160865,-0.2998424519497317
8.767507002801121,-0.25017407504664624
8.771508603441378,-0.20266099726789955
8.775510204081632,-0.13285678317290328
8.779511804721889,-0.3271950792191118
8.783513405362145,-0.33080402749314475
8.787515006002401,-0.1896644235584929
8.791516606642658,-0.18298277132229168
8.795518207282914,-0.2697148783965689
8.79951980792317,-0.29980376079173915
8.803521408563427,-0.11334166192078744
8.807523009203681,-0.09667021648412558
8.811524609843937,-0.18578613572769662
8.815526210484194,-0.20629553946163873
8.81952781112445,-0.3152271302317986
8.823529411764707,-0.15770881764334452
8.827531012404963,-0.1546355129179479
8.83153261304522,-0.3178194318701082
8.835534213685474,-0.21761606273898998
8.83953581432573,-0.3112778249268788
8.843537414965986,-0.2555471650320992
8.847539015606243,-0.3854715468258824
8.8515406162465,-0.228649912853355
8.855542216886755,-0.1572321960862382
8.859543817527012,-0.30540923759189814
8.863545418167266,-0.25984446592323523
8.867547018807523,-0.2563142721808065
8.871548619447779,-0.2830902851956314
8.875550220088035,-0.20432106731161181
8.879551820728292,-0.290976240425291
8.883553421368548,-0.2394687097163951
8.887555022008804,-0.22084191530402764
8.89155662264906,-0.31171911209009573
8.895558223289315,-0.2504983950961066
8.899559823929572,-0.2981889790436959
8.903561424569828,-0.21392483470068577
8.907563025210084,-0.24290419219992931
8.91156462585034,-0.3179990442469349
8.915566226490597,-0.28482755868112636
8.919567827130853,-0.39562111219084206
8.923569427771108,-0.2350932495417217
8.927571028411364,-0.18386211620624932
8.93157262905162,-0.38841344525499094
8.935574229691877,-0.26980748237217217
8.939575830332133,-0.29510852547614747
8.94357743097239,-0.35845762546409937
8.947579031612646,-0.37526375846101595
8.951580632252902,-0.37581632206050725
8.955582232893157,-0.32203855468862547
8.959583833533413,-0.3006202555462993
8.96358543417367,-0.3149363324253137
8.967587034813926,-0.2812659500832704
8.971588635454182,-0.22087348547712973
8.975590236094439,-0.2622750967985956
8.979591836734695,-0.28341876968742535
8.98359343737495,-0.33508549245021607
8.987595038015206,-0.26456804760634
8.991596638655462,-0.21073134639279645
8.995598239295719,-0.3315174415931402
8.999599839935975,-0.41636559369677456
9.003601440576231,-0.2689896946609332
9.007603041216488,-0.3502433153636196
9.011604641856744,-0.3055422893283173
9.015606242496998,-0.39150413888210955
9.019607843137255,-0.371956118664859
9.023609443777511,-0.20442721262266786
9.027611044417768,-0.2670219672506878
9.031612645058024,-0.20818438821443497
9.03561424569828,-0.2932975280873871
9.039615846338537,-0.28462173931177803
9.043617446978791,-0.27822581297617405
9.047619047619047,-0.2547413407875674
9.051620648259304,-0.3526854202284058
9.05562224889956,-0.24997697651995146
9.059623849539816,-0.21356079327772842
9.063625450180073,-0.3739078562456808
9.06762705082033,-0.317611742878924
9.071628651460584,-0.2893257035713068
9.07563025210084,-0.26149867727406584
9.079631852741096,-0.3686050807714228
9.083633453381353,-0.2346469312896562
9.087635054021609,-0.30334261096423354
9.091636654661865,-0.35580630287843573
9.095638255302122,-0.3112302857917884
9.099639855942378,-0.33554803712743725
9.103641456582633,-0.3534272747845234
9.107643057222889,-0.26187495890695456
9.111644657863145,-0.25809106456621606
9.115646258503402,-0.3077279537736699
9.119647859143658,-0.3285610742220934
9.123649459783914,-0.10170360287163874
9.12765106042417,-0.17899590969209528
9.131652661064425,-0.2906999207343468
9.135654261704682,-0.2425368986399622
9.139655862344938,0.10125090436971648
9.143657462985194,0.23498594047662907
9.14765906362545,0.6385484985399092
9.151660664265707,0.8114286819596896
9.155662264905963,0.9123633792223462
9.15966386554622,0.8278308944726325
9.163665466186474,0.552936472182738
9.16766706682673,0.1848369546522303
9.171668667466987,-0.03658939989773134
9.175670268107243,-0.21605056284299629
9.1796718687475,-0.379299438999745
9.183673469387756,-0.5397162196671753
9.187675070028012,-0.5215226420283666
9.191676670668267,-0.48911848350199194
9.195678271308523,-0.5539705232622211
9.19967987194878,-0.6649266633205989
9.203681472589036,-0.6202597315751082
9.207683073229292,-0.5780889061739588
9.211684673869549,-0.696640406880209
9.215686274509805,-0.5745987457822714
9.219687875150061,-0.48608857263088745
9.223689475790316,-0.42120807184510073
9.227691076430572,-0.48640439644516514
9.231692677070829,-0.506974383592151
9.235694277711085,-0.4057208212125808
9.239695878351341,-0.31010858791822954
9.243697478991598,-0.25785705683321947
9.247699079631854,-0.3122931280177048
9.251700680272108,-0.35656422038023
9.255702280912365,-0.2531557180129126
9.259703881552621,-0.3191873101145909
9.263705482192877,-0.31947690994002886
9.267707082833134,-0.2840810449481502
9.27170868347339,-0.3019219393780418
9.275710284113647,-0.2279746078772563
9.279711884753901,-0.2159987145755282
9.283713485394157,-0.2710208122403992
9.287715086034414,-0.26563912427041175
9.29171668667467,-0.21023082384879382
9.295718287314926,-0.2784272911562247
9.299719887955183,-0.14147434206804327
9.30372148859544,-0.16640259670879268
9.307723089235695,-0.04733321019114703
9.31172468987595,-0.1716411989538489
9.315726290516206,-0.1340870840162686
9.319727891156463,-0.1147618513107971
9.323729491796719,-0.0703831920346906
9.327731092436975,-0.08512241564674274
9.331732693077232,-0.21224707127074116
9.335734293717488,0.008734692975247264
9.339735894357743,0.029085430988025348
9.343737494997999,-0.03267901606525338
9.347739095638255,-0.04007987307656803
9.351740696278512,-0.022102729825416435
9.355742296918768,0.11534051663640424
9.359743897559024,0.03215826218744666
9.36374549819928,-0.01954271611934147
9.367747098839537,-0.06637250184085593
9.371748699479792,0.053163180754334516
9.375750300120048,0.018107981105154013
9.379751900760304,0.05173117521671497
9.38375350140056,-0.088617350205969
9.387755102040817,-0.022927880414673626
9.391756702681073,-0.05070757370571644
9.39575830332133,-0.11541018007064319
9.399759903961584,-0.13128574114771946
9.40376150460184,-0.11795025306353099
9.407763105242097,-0.054277676484343076
9.411764705882353,-0.11516938859946041
9.41576630652261,-0.18778497020150245
9.419767907162866,-0.25954530666243925
9.423769507803122,-0.1951357362436597
9.427771108443377,-0.13442864505434426
9.431772709083633,-0.31250428629166377
9.43577430972389,-0.20942053013221745
9.439775910364146,-0.16206118417873688
9.443777511004402,-0.19885998722398532
9.447779111644659,-0.27481432975437126
9.451780712284915,-0.24181357390442415
9.455782312925171,-0.23711751868690586
9.459783913565426,-0.14040607859495885
9.463785514205682,-0.26633779524850687
9.467787114845938,-0.2912030659187562
9.471788715486195,-0.21025011975944352
9.475790316126451,-0.2162176618300983
9.479791916766708,-0.22056543945996487
9.483793517406964,-0.3190268780103677
9.487795118047218,-0.28612728120324993
9.491796718687475,-0.159350528980307
9.495798319327731,-0.23661690503037455
9.499799919967987,-0.323443059044404
9.503801520608244,-0.25047916442969403
9.5078031212485,-0.09173046201291007
9.511804721888756,-0.27874126244040615
9.515806322529013,-0.2587047133033432
9.519807923169267,-0.22839837763556425
9.523809523809524,-0.2376378451436877
9.52781112444978,-0.21427237155415046
9.531812725090036,-0.2485636007326627
9.535814325730293,-0.27428322141802647
9.539815926370549,-0.19005553143787526
9.543817527010805,-0.19530843878135398
9.54781912765106,-0.26888168515632493
9.551820728291316,-0.31130577307269786
9.555822328931573,-0.16279276939543144
9.559823929571829,-0.16462890857702048
9.563825530212085,-0.15118661908031522
9.567827130852342,-0.2699745019608356
9.571828731492598,-0.2648507602826908
9.575830332132854,-0.12854145137481104
9.579831932773109,-0.2953167096675771
9.583833533413365,-0.33841650235033977
9.587835134053622,-0.2325899979368792
9.591836734693878,-0.14195950998297116
9.595838335334134,-0.2086755253463432
9.59983993597439,-0.27115170215023565
9.603841536614647,-0.23146684734382436
9.607843137254902,-0.16928378891905813
9.611844737895158,-0.19050780876189358
9.615846338535414,-0.27721152911782454
9.61984793917567,-0.21672787306698518
9.623849539815927,-0.18631111897240088
9.627851140456183,-0.09334702409276206
9.63185274109644,-0.31341299325427496
9.635854341736694,-0.1597387839788509
9.63985594237695,-0.08545892940198518
9.643857543017207,-0.18141418915450183
9.647859143657463,-0.2812330939659329
9.65186074429772,-0.2529675259057263
9.655862344937976,-0.26865285169331865
9.659863945578232,-0.10941559333998478
9.663865546218489,-0.15124322149014266
9.667867146858743,-0.23999185800115846
9.671868747499,-0.07886802684280102
9.675870348139256,-0.14288625131747806
9.679871948779512,-0.15672984522427502
9.683873549419769,-0.25619541095387605
9.687875150060025,-0.10896043694292129
9.691876750700281,-0.05431128732345465
9.695878351340536,-0.2294472568534083
9.699879951980792,-0.12762135367383562
9.703881552621048,-0.15932284074265618
9.707883153261305,-0.16827205573951515
9.711884753901561,-0.11516119072939104
9.715886354541817,-0.1663822292595661
9.719887955182074,-0.20612352417923968
9.72388955582233,-0.06971770331539387
9.727891156462585,-0.19988127903054698
9.731892757102841,-0.22427199986827115
9.735894357743097,-0.17441924736820516
9.739895958383354,-0.1270012832256867
9.74389755902361,-0.16048355348180865
9.747899159663866,-0.19662827254226412
9.751900760304123,-0.10803900184397155
9.755902360944377,-0.0918842136138748
9.759903961584634,-0.1137730527474062
9.76390556222489,-0.15038769545427993
9.767907162865146,-0.1822345426215045
9.771908763505403,-0.16033668752426888
9.775910364145659,-0.12724929730568788
9.779911964785915,-0.13589099023192205
9.78391356542617,-0.23580096388388286
9.787915166066426,-0.02618205526091906
9.791916766706683,-0.09384912913481096
9.795918367346939,-0.23620779673168804
9.799919967987195,-0.14477869948624394
9.803921568627452,-0.12983261708745397
9.807923169267708,0.023182590013628657
9.811924769907964,-0.09853948137413403
9.815926370548219,-0.15355435744644597
9.819927971188475,-0.13259440797775812
9.823929571828732,-0.018891294492962125
9.827931172468988,-0.06467709728871288
9.831932773109244,-0.1954123077352382
9.8359343737495,-0.05795404376005901
9.839935974389757,-0.1062479466458517
9.843937575030012,-0.10843783030712505
9.847939175670268,-0.15738848929410265
9.851940776310524,-0.07203522049021568
9.85594237695078,-0.06766122723742751
9.859943977591037,-0.04499047282793845
9.863945578231293,-0.060003687688693415
9.86794717887155,-0.04414974821517128
9.871948779511806,-0.09568543668530574
9.87595038015206,-0.05132645257531558
9.879951980792317,-0.09860687364097784
9.883953581432573,-0.12523348036457066
9.88795518207283,-0.044686537657283316
9.891956782713086,-0.013874924258372376
9.895958383353342,0.03817183183352453
9.899959983993599,-0.09027148993321979
9.903961584633853,-0.006513359076523994
9.90796318527411,-0.040855302762466655
9.911964785914366,0.007554315004240958
9.915966386554622,-0.07993439325246507
9.919967987194878,-0.03404465758867266
9.923969587835135,-0.03499769543629067
9.927971188475391,0.03477493447861908
9.931972789115648,-0.09346534950452394
9.935974389755902,-0.07622773700127405
9.939975990396158,0.11488117212183363
9.943977591036415,-0.11333368336204461
9.947979191676671,0.01947233935419048
9.951980792316927,-0.04201224938768791
9.955982392957184,0.04401562818873217
9.95998399359744,0.10409916339375822
9.963985594237695,0.011082056147575708
9.967987194877951,0.012563512828612927
9.971988795518207,0.3018092075644209
9.975990396158464,0.6403845992596099
9.97999199679872,0.7872371294417501
9.983993597438976,1.027337038630996
9.987995198079233,1.226253110028885
9.991996798719487,1.0980990669169493
9.995998399359744,0.7895935848576535
10.0,0.48309546043187507
